Data from pcis_c_m1_p2_Reflection_4.txt Node
Date: Wed Jul 12 17:16:09 ART 2017
User: rodoncho
Spectrometer: USB2E3644
Trigger mode: 4
Integration Time (sec): 6.000000E-2
Scans to average: 10
Electric dark correction enabled: true
Nonlinearity correction enabled: false
Boxcar width: 10
XAxis mode: Wavelengths
Number of Pixels in Spectrum: 2048
>>>>>Begin Spectral Data<<<<<
178.315	7.32
178.696	-18.37
179.076	-18.07
179.457	-271.87
179.838	56.25
180.218	-300
180.599	712.5
180.979	-600
181.36	-15.79
181.74	51.22
182.121	67.11
182.501	99.29
182.881	75
183.262	57.27
183.642	-35.29
184.022	257.14
184.402	142.72
184.783	128.09
185.163	120
185.543	143.71
185.923	140.85
186.303	145.27
186.683	146.95
187.063	149.67
187.443	139.09
187.823	126.11
188.203	117.83
188.583	121.14
188.963	119.19
189.343	124.25
189.723	126.21
190.102	126.98
190.482	122.7
190.862	123.56
191.242	128.54
191.621	132.97
192.001	133.39
192.38	133.54
192.76	130.84
193.14	133.1
193.519	128.19
193.898	125.46
194.278	121.67
194.657	120.93
195.037	120.94
195.416	121.49
195.795	123.3
196.175	123.2
196.554	122.95
196.933	124.18
197.312	123.61
197.692	120.91
198.071	120.27
198.45	120.07
198.829	116.15
199.208	114.38
199.587	113.85
199.966	111.82
200.345	111.39
200.724	110.8
201.103	110.04
201.482	109.35
201.86	109.23
202.239	109.14
202.618	108.5
202.997	108.23
203.375	106.78
203.754	104.17
204.133	104.03
204.511	104.3
204.89	103.89
205.269	102.99
205.647	104.82
206.026	104.63
206.404	104.98
206.782	106
207.161	106.38
207.539	106.47
207.918	107.23
208.296	105.91
208.674	105.41
209.052	106.42
209.431	108.05
209.809	107.6
210.187	108.24
210.565	108.82
210.943	109.03
211.321	110.23
211.699	111.2
212.077	111.55
212.455	111.66
212.833	112.24
213.211	111.38
213.589	111.39
213.967	110.64
214.345	109.76
214.722	111.07
215.1	110.92
215.478	109.84
215.855	109.82
216.233	109.77
216.611	110.62
216.988	109.23
217.366	109.39
217.743	111.49
218.121	111.85
218.498	111.78
218.876	111.38
219.253	111.79
219.631	113.11
220.008	113.45
220.385	113.47
220.762	113.54
221.14	112.99
221.517	111.42
221.894	112
222.271	113.32
222.648	113.31
223.025	113.64
223.402	114.83
223.78	115.69
224.157	116.69
224.533	117.66
224.91	118.02
225.287	117.23
225.664	115.82
226.041	114.24
226.418	114.44
226.795	114.36
227.171	112.55
227.548	111.64
227.925	111.9
228.301	111.57
228.678	110.22
229.055	110.9
229.431	112.02
229.808	111.62
230.184	110.95
230.561	110.89
230.937	111.36
231.313	112.16
231.69	111.71
232.066	112.2
232.442	112.93
232.819	113.1
233.195	113.14
233.571	112.48
233.947	112.97
234.323	111.65
234.699	111.81
235.075	112.56
235.451	112.68
235.827	112.76
236.203	112.13
236.579	113.75
236.955	115.58
237.331	117.88
237.707	120.35
238.083	123.23
238.459	128.25
238.834	133.4
239.21	136.02
239.586	140.27
239.961	144.65
240.337	145.51
240.713	148.92
241.088	150.88
241.464	154.56
241.839	159.31
242.215	168.32
242.59	178.44
242.965	200.77
243.341	241.13
243.716	301.5
244.091	403.21
244.467	540.9
244.842	772.94
245.217	1039.82
245.592	1193.04
245.967	1282.12
246.343	1123.15
246.718	954.03
247.093	978.77
247.468	1049.3
247.843	1079.01
248.218	1574.74
248.593	3533.86
248.967	-6245.07
249.342	-2866.45
249.717	-2948.68
250.092	-3506.25
250.467	-15424.14
250.841	2326.94
251.216	842.57
251.591	519.82
251.965	400.69
252.34	351.43
252.714	319.41
253.089	295.46
253.463	294.87
253.838	307.72
254.212	314.45
254.587	336.88
254.961	380.81
255.335	490.34
255.71	1051.38
256.084	-2411.17
256.458	-548.45
256.832	-319.4
257.206	-247.39
257.581	-214.63
257.955	-197.34
258.329	-186.76
258.703	-169.13
259.077	-156.86
259.451	-145.04
259.825	-135.31
260.199	-129.57
260.572	-128.65
260.946	-126.99
261.32	-127.01
261.694	-123.24
262.068	-118.81
262.441	-116.64
262.815	-117.04
263.189	-120.44
263.562	-130.13
263.936	-149.74
264.309	-181.72
264.683	-229.14
265.056	-255.98
265.43	-269.8
265.803	-265.11
266.176	-249.04
266.55	-252.93
266.923	-251.06
267.296	-239.46
267.67	-222.91
268.043	-204.67
268.416	-181.19
268.789	-156.55
269.162	-134.05
269.535	-122.96
269.908	-117.42
270.281	-112.11
270.654	-111.27
271.027	-111.78
271.4	-112.32
271.773	-113.28
272.146	-112.94
272.519	-107.78
272.891	-105.25
273.264	-104.71
273.637	-105.81
274.01	-107.67
274.382	-105.62
274.755	-103.74
275.127	-104.15
275.5	-106.22
275.872	-106.92
276.245	-106.44
276.617	-110.79
276.99	-116.69
277.362	-120.89
277.734	-122.07
278.107	-120.32
278.479	-110.95
278.851	-105.54
279.223	-102.33
279.596	-100.17
279.968	-98.16
280.34	-97
280.712	-93.05
281.084	-86.48
281.456	-76.83
281.828	-69.35
282.2	-63.62
282.572	-58.36
282.944	-54.92
283.315	-53.33
283.687	-52.15
284.059	-51.86
284.431	-50.8
284.802	-50.32
285.174	-48.14
285.546	-45.92
285.917	-44.86
286.289	-44.36
286.66	-43.16
287.032	-42.43
287.403	-40.95
287.775	-39.65
288.146	-38.45
288.518	-38.1
288.889	-38.43
289.26	-40.67
289.632	-42.07
290.003	-43.66
290.374	-45.05
290.745	-45.3
291.116	-44.57
291.487	-42.79
291.858	-40.96
292.229	-39.11
292.6	-36.65
292.971	-34.68
293.342	-32.15
293.713	-29.14
294.084	-27.31
294.455	-26.01
294.826	-24.78
295.196	-24.71
295.567	-24.72
295.938	-24.52
296.308	-24.17
296.679	-22.9
297.05	-21.48
297.42	-20.03
297.791	-18.37
298.161	-16.89
298.532	-15.83
298.902	-15.07
299.272	-14.28
299.643	-13.39
300.013	-12.96
300.383	-12.38
300.754	-12.08
301.124	-12.14
301.494	-12.26
301.864	-12.07
302.234	-12.1
302.604	-12.45
302.974	-11.95
303.344	-11.68
303.714	-11.25
304.084	-10.65
304.454	-10.2
304.824	-9.46
305.194	-8.77
305.563	-8.19
305.933	-7.19
306.303	-5.94
306.673	-5.37
307.042	-4.78
307.412	-3.52
307.781	-1.82
308.151	-0.47
308.521	0.3
308.89	0.66
309.259	1.38
309.629	2.13
309.998	2.66
310.368	2.99
310.737	3.4
311.106	4.37
311.475	5.34
311.845	5.76
312.214	6.2
312.583	6.76
312.952	7.33
313.321	7.9
313.69	8.02
314.059	7.59
314.428	7.79
314.797	7.69
315.166	6.84
315.535	6.22
315.904	5.98
316.272	6.12
316.641	6.24
317.01	6.27
317.379	5.97
317.747	6.43
318.116	7.2
318.484	7.91
318.853	8.08
319.221	8.13
319.59	8.86
319.958	9.34
320.327	9.48
320.695	9.3
321.063	9.39
321.432	9.69
321.8	10.45
322.168	11.48
322.536	12.52
322.905	13.47
323.273	14.34
323.641	14.73
324.009	14.82
324.377	15.4
324.745	15.5
325.113	15.77
325.481	16.15
325.849	16.69
326.216	16.84
326.584	17.33
326.952	17.49
327.32	17.71
327.687	17.97
328.055	18.55
328.423	19.04
328.79	19.33
329.158	19.43
329.525	19.81
329.893	20.04
330.26	20.16
330.628	20.6
330.995	20.67
331.362	20.95
331.73	21.39
332.097	21.53
332.464	21.77
332.831	22.09
333.199	22.54
333.566	22.68
333.933	22.69
334.3	22.47
334.667	22.81
335.034	23.1
335.401	23.15
335.768	23.09
336.135	23.28
336.502	23.52
336.868	23.89
337.235	24.15
337.602	24.43
337.969	24.72
338.335	24.86
338.702	25.09
339.069	25.36
339.435	25.64
339.802	25.96
340.168	26.32
340.535	26.62
340.901	26.63
341.267	26.87
341.634	27.31
342	27.88
342.366	28.1
342.733	28.2
343.099	28.38
343.465	28.64
343.831	28.82
344.197	28.96
344.563	29.25
344.929	29.28
345.295	29.3
345.661	29.42
346.027	29.64
346.393	29.79
346.759	29.96
347.125	30
347.491	30.11
347.856	30.22
348.222	30.16
348.588	30.2
348.953	30.3
349.319	30.44
349.684	30.51
350.05	30.64
350.415	30.88
350.781	31.17
351.146	31.4
351.512	31.69
351.877	31.92
352.242	31.84
352.608	31.93
352.973	32.15
353.338	32.28
353.703	32.45
354.068	32.59
354.433	32.82
354.798	33.14
355.164	33.36
355.528	33.41
355.893	33.75
356.258	34.04
356.623	34.26
356.988	34.46
357.353	34.75
357.718	34.97
358.082	35.13
358.447	35.18
358.812	35.23
359.176	35.46
359.541	35.62
359.905	35.88
360.27	36.11
360.634	36.21
360.999	36.34
361.363	36.43
361.728	36.53
362.092	36.48
362.456	36.56
362.821	36.58
363.185	36.77
363.549	36.89
363.913	36.98
364.277	37.09
364.641	37.15
365.005	37.22
365.369	37.28
365.733	37.29
366.097	37.56
366.461	37.69
366.825	37.71
367.189	37.72
367.553	37.9
367.916	38.1
368.28	38.21
368.644	38.44
369.007	38.56
369.371	38.82
369.734	39
370.098	39.19
370.461	39.32
370.825	39.45
371.188	39.59
371.552	39.75
371.915	39.81
372.278	40.02
372.642	40.11
373.005	40.21
373.368	40.38
373.731	40.42
374.094	40.58
374.457	40.69
374.82	40.83
375.183	40.88
375.546	40.96
375.909	41.15
376.272	41.11
376.635	41.22
376.998	41.17
377.361	41.34
377.723	41.28
378.086	41.43
378.449	41.56
378.811	41.62
379.174	41.68
379.537	41.83
379.899	41.92
380.262	42.06
380.624	42.21
380.987	42.35
381.349	42.45
381.711	42.52
382.074	42.62
382.436	42.74
382.798	42.89
383.16	42.95
383.522	43.07
383.884	43.26
384.247	43.32
384.609	43.44
384.971	43.45
385.333	43.68
385.695	43.71
386.056	43.73
386.418	43.8
386.78	43.89
387.142	43.91
387.504	43.88
387.865	43.88
388.227	43.88
388.589	43.8
388.95	43.86
389.312	43.9
389.673	43.93
390.035	43.88
390.396	43.95
390.758	44.01
391.119	44.02
391.48	44.02
391.842	44.06
392.203	44.12
392.564	44.16
392.925	44.16
393.286	44.2
393.648	44.29
394.009	44.33
394.37	44.34
394.731	44.43
395.092	44.47
395.452	44.46
395.813	44.54
396.174	44.65
396.535	44.68
396.896	44.72
397.257	44.7
397.617	44.83
397.978	44.8
398.338	44.83
398.699	44.88
399.06	44.9
399.42	44.9
399.781	44.95
400.141	44.92
400.501	44.89
400.862	44.92
401.222	44.88
401.582	44.91
401.943	44.95
402.303	44.92
402.663	44.98
403.023	45.07
403.383	45.03
403.743	45.05
404.103	45.11
404.463	45.14
404.823	45.17
405.183	45.11
405.543	45.12
405.903	45.12
406.262	45.04
406.622	45.01
406.982	45
407.342	44.95
407.701	44.98
408.061	44.96
408.42	44.93
408.78	44.91
409.139	44.87
409.499	44.83
409.858	44.82
410.217	44.75
410.577	44.67
410.936	44.65
411.295	44.6
411.655	44.51
412.014	44.43
412.373	44.42
412.732	44.34
413.091	44.26
413.45	44.2
413.809	44.17
414.168	44.15
414.527	44.1
414.886	44.04
415.245	43.96
415.603	43.87
415.962	43.79
416.321	43.73
416.679	43.62
417.038	43.47
417.397	43.32
417.755	43.23
418.114	43.19
418.472	43.13
418.831	43.07
419.189	43
419.547	42.94
419.906	42.81
420.264	42.71
420.622	42.62
420.981	42.5
421.339	42.38
421.697	42.27
422.055	42.18
422.413	42.11
422.771	42.05
423.129	41.99
423.487	41.93
423.845	41.86
424.203	41.79
424.56	41.77
424.918	41.71
425.276	41.65
425.634	41.55
425.991	41.45
426.349	41.33
426.707	41.22
427.064	41.12
427.422	41.02
427.779	40.97
428.137	40.84
428.494	40.76
428.851	40.65
429.209	40.51
429.566	40.29
429.923	40.09
430.28	39.94
430.637	39.81
430.995	39.64
431.352	39.53
431.709	39.46
432.066	39.35
432.423	39.26
432.78	39.13
433.137	38.98
433.493	38.86
433.85	38.73
434.207	38.57
434.564	38.42
434.92	38.27
435.277	38.08
435.634	37.91
435.99	37.67
436.347	37.47
436.703	37.29
437.06	37.12
437.416	36.93
437.773	36.75
438.129	36.6
438.485	36.46
438.841	36.31
439.198	36.15
439.554	36
439.91	35.86
440.266	35.71
440.622	35.58
440.978	35.41
441.334	35.24
441.69	35.05
442.046	34.83
442.402	34.64
442.758	34.42
443.113	34.22
443.469	34.06
443.825	33.88
444.181	33.71
444.536	33.54
444.892	33.4
445.247	33.24
445.603	33.07
445.958	32.92
446.314	32.77
446.669	32.63
447.025	32.49
447.38	32.36
447.735	32.22
448.09	32.06
448.446	31.9
448.801	31.73
449.156	31.58
449.511	31.43
449.866	31.24
450.221	31.09
450.576	30.9
450.931	30.7
451.286	30.48
451.641	30.28
451.995	30.09
452.35	29.87
452.705	29.72
453.06	29.56
453.414	29.45
453.769	29.29
454.123	29.11
454.478	28.94
454.832	28.75
455.187	28.52
455.541	28.23
455.896	27.99
456.25	27.72
456.604	27.48
456.958	27.28
457.313	27.14
457.667	26.97
458.021	26.84
458.375	26.72
458.729	26.62
459.083	26.53
459.437	26.44
459.791	26.34
460.145	26.21
460.499	26.09
460.852	25.93
461.206	25.82
461.56	25.7
461.914	25.58
462.267	25.46
462.621	25.37
462.974	25.27
463.328	25.14
463.681	25.04
464.035	24.92
464.388	24.79
464.742	24.62
465.095	24.48
465.448	24.32
465.801	24.17
466.155	24.02
466.508	23.9
466.861	23.76
467.214	23.64
467.567	23.53
467.92	23.42
468.273	23.31
468.626	23.17
468.979	23.06
469.332	22.92
469.684	22.78
470.037	22.63
470.39	22.5
470.743	22.42
471.095	22.29
471.448	22.18
471.8	22.09
472.153	21.97
472.505	21.86
472.858	21.74
473.21	21.59
473.562	21.44
473.915	21.26
474.267	21.12
474.619	21
474.971	20.87
475.324	20.75
475.676	20.63
476.028	20.5
476.38	20.38
476.732	20.27
477.084	20.15
477.436	20.02
477.787	19.9
478.139	19.73
478.491	19.56
478.843	19.38
479.195	19.18
479.546	18.94
479.898	18.66
480.249	18.4
480.601	18.22
480.952	18.1
481.304	18.01
481.655	17.94
482.007	17.86
482.358	17.8
482.709	17.74
483.061	17.66
483.412	17.59
483.763	17.49
484.114	17.4
484.465	17.32
484.816	17.25
485.167	17.2
485.518	17.15
485.869	17.12
486.22	17.09
486.571	17.06
486.922	17.03
487.272	16.98
487.623	16.9
487.974	16.79
488.324	16.66
488.675	16.55
489.025	16.45
489.376	16.38
489.726	16.32
490.077	16.27
490.427	16.23
490.778	16.19
491.128	16.15
491.478	16.14
491.828	16.1
492.179	16.08
492.529	16.02
492.879	15.95
493.229	15.88
493.579	15.81
493.929	15.76
494.279	15.71
494.629	15.67
494.979	15.63
495.328	15.61
495.678	15.6
496.028	15.58
496.378	15.53
496.727	15.49
497.077	15.41
497.426	15.34
497.776	15.26
498.125	15.21
498.475	15.15
498.824	15.08
499.174	15.03
499.523	14.96
499.872	14.92
500.221	14.87
500.571	14.82
500.92	14.77
501.269	14.71
501.618	14.65
501.967	14.62
502.316	14.58
502.665	14.53
503.014	14.47
503.363	14.42
503.711	14.36
504.06	14.29
504.409	14.23
504.758	14.15
505.106	14.09
505.455	14.03
505.803	13.96
506.152	13.89
506.5	13.83
506.849	13.77
507.197	13.71
507.546	13.67
507.894	13.63
508.242	13.6
508.59	13.54
508.939	13.49
509.287	13.43
509.635	13.4
509.983	13.37
510.331	13.36
510.679	13.31
511.027	13.27
511.375	13.23
511.723	13.2
512.07	13.18
512.418	13.17
512.766	13.15
513.114	13.11
513.461	13.11
513.809	13.1
514.156	13.06
514.504	13.03
514.851	12.98
515.199	12.92
515.546	12.84
515.893	12.78
516.241	12.75
516.588	12.71
516.935	12.67
517.282	12.63
517.63	12.59
517.977	12.56
518.324	12.53
518.671	12.52
519.018	12.49
519.365	12.45
519.711	12.42
520.058	12.36
520.405	12.35
520.752	12.3
521.099	12.27
521.445	12.25
521.792	12.19
522.138	12.15
522.485	12.11
522.832	12.08
523.178	12.06
523.524	12.04
523.871	12.01
524.217	11.96
524.563	11.88
524.91	11.77
525.256	11.67
525.602	11.61
525.948	11.54
526.294	11.51
526.64	11.48
526.986	11.47
527.332	11.45
527.678	11.43
528.024	11.41
528.37	11.4
528.716	11.37
529.061	11.35
529.407	11.33
529.753	11.29
530.098	11.25
530.444	11.23
530.789	11.2
531.135	11.16
531.48	11.16
531.826	11.15
532.171	11.16
532.516	11.17
532.862	11.16
533.207	11.16
533.552	11.13
533.897	11.11
534.242	11.08
534.587	11.08
534.932	11.05
535.277	11.03
535.622	11.01
535.967	11.01
536.312	11
536.657	11
537.001	11
537.346	10.98
537.691	10.93
538.035	10.87
538.38	10.81
538.724	10.76
539.069	10.72
539.413	10.67
539.758	10.65
540.102	10.64
540.446	10.62
540.791	10.61
541.135	10.6
541.479	10.58
541.823	10.56
542.167	10.54
542.512	10.53
542.856	10.51
543.2	10.47
543.543	10.46
543.887	10.43
544.231	10.42
544.575	10.43
544.919	10.43
545.262	10.44
545.606	10.46
545.95	10.46
546.293	10.45
546.637	10.45
546.98	10.46
547.324	10.45
547.667	10.44
548.011	10.4
548.354	10.37
548.697	10.35
549.04	10.34
549.384	10.34
549.727	10.3
550.07	10.28
550.413	10.26
550.756	10.26
551.099	10.24
551.442	10.21
551.785	10.18
552.128	10.17
552.47	10.16
552.813	10.13
553.156	10.1
553.499	10.08
553.841	10.05
554.184	10
554.526	9.98
554.869	9.95
555.211	9.95
555.554	9.94
555.896	9.9
556.238	9.87
556.581	9.84
556.923	9.83
557.265	9.79
557.607	9.76
557.949	9.69
558.291	9.66
558.633	9.62
558.975	9.59
559.317	9.53
559.659	9.48
560.001	9.45
560.343	9.4
560.685	9.38
561.026	9.33
561.368	9.3
561.71	9.2
562.051	9.16
562.393	9.13
562.734	9.08
563.076	9.05
563.417	8.99
563.759	8.93
564.1	8.9
564.441	8.88
564.782	8.86
565.124	8.82
565.465	8.78
565.806	8.76
566.147	8.71
566.488	8.7
566.829	8.66
567.17	8.64
567.511	8.63
567.851	8.62
568.192	8.59
568.533	8.58
568.874	8.57
569.214	8.53
569.555	8.5
569.895	8.45
570.236	8.42
570.576	8.39
570.917	8.37
571.257	8.33
571.598	8.26
571.938	8.23
572.278	8.22
572.618	8.21
572.959	8.16
573.299	8.13
573.639	8.1
573.979	8.08
574.319	8.06
574.659	8.02
574.999	7.99
575.339	7.94
575.678	7.9
576.018	7.85
576.358	7.81
576.698	7.78
577.037	7.75
577.377	7.7
577.716	7.66
578.056	7.62
578.395	7.59
578.735	7.57
579.074	7.52
579.413	7.45
579.753	7.4
580.092	7.39
580.431	7.38
580.77	7.35
581.109	7.31
581.448	7.26
581.787	7.24
582.126	7.18
582.465	7.17
582.804	7.13
583.143	7.09
583.482	7.04
583.82	7.01
584.159	6.99
584.498	6.92
584.836	6.89
585.175	6.87
585.514	6.85
585.852	6.84
586.19	6.82
586.529	6.81
586.867	6.81
587.205	6.81
587.544	6.78
587.882	6.74
588.22	6.7
588.558	6.68
588.896	6.65
589.234	6.66
589.572	6.63
589.91	6.59
590.248	6.56
590.586	6.58
590.924	6.54
591.262	6.51
591.599	6.53
591.937	6.51
592.275	6.49
592.612	6.43
592.95	6.43
593.287	6.43
593.625	6.46
593.962	6.45
594.299	6.43
594.637	6.41
594.974	6.43
595.311	6.45
595.648	6.45
595.985	6.43
596.322	6.4
596.659	6.39
596.996	6.38
597.333	6.37
597.67	6.34
598.007	6.31
598.344	6.27
598.681	6.25
599.017	6.23
599.354	6.2
599.691	6.2
600.027	6.17
600.364	6.14
600.7	6.09
601.037	6.07
601.373	6.05
601.71	6.06
602.046	6.06
602.382	6.02
602.718	6.04
603.054	6.03
603.391	6.01
603.727	5.99
604.063	5.99
604.399	5.99
604.735	5.98
605.071	5.99
605.406	5.99
605.742	6
606.078	6
606.414	6.01
606.749	6.03
607.085	6.03
607.421	6
607.756	5.99
608.092	5.94
608.427	5.89
608.762	5.8
609.098	5.73
609.433	5.7
609.768	5.63
610.104	5.6
610.439	5.59
610.774	5.6
611.109	5.55
611.444	5.51
611.779	5.48
612.114	5.46
612.449	5.42
612.784	5.35
613.118	5.33
613.453	5.28
613.788	5.18
614.123	5.08
614.457	5.05
614.792	5
615.126	4.96
615.461	4.92
615.795	4.9
616.13	4.91
616.464	4.89
616.798	4.86
617.132	4.83
617.467	4.77
617.801	4.72
618.135	4.71
618.469	4.7
618.803	4.68
619.137	4.65
619.471	4.66
619.805	4.66
620.139	4.63
620.472	4.63
620.806	4.61
621.14	4.59
621.473	4.55
621.807	4.5
622.141	4.48
622.474	4.46
622.808	4.43
623.141	4.42
623.474	4.42
623.808	4.43
624.141	4.46
624.474	4.47
624.807	4.47
625.141	4.48
625.474	4.46
625.807	4.46
626.14	4.48
626.473	4.5
626.806	4.52
627.138	4.52
627.471	4.48
627.804	4.47
628.137	4.49
628.469	4.5
628.802	4.5
629.135	4.46
629.467	4.45
629.8	4.45
630.132	4.4
630.465	4.36
630.797	4.32
631.129	4.31
631.461	4.29
631.794	4.31
632.126	4.3
632.458	4.31
632.79	4.3
633.122	4.28
633.454	4.25
633.786	4.2
634.118	4.15
634.45	4.1
634.781	4.09
635.113	4.07
635.445	4.07
635.777	4.05
636.108	4.07
636.44	4.08
636.771	4.06
637.103	4.05
637.434	4.03
637.765	4.03
638.097	3.95
638.428	3.91
638.759	3.88
639.09	3.82
639.422	3.77
639.753	3.73
640.084	3.72
640.415	3.72
640.746	3.7
641.077	3.71
641.407	3.72
641.738	3.71
642.069	3.67
642.4	3.63
642.73	3.61
643.061	3.57
643.392	3.6
643.722	3.64
644.053	3.64
644.383	3.63
644.713	3.56
645.044	3.57
645.374	3.55
645.704	3.49
646.034	3.53
646.365	3.56
646.695	3.55
647.025	3.51
647.355	3.46
647.685	3.42
648.015	3.45
648.344	3.46
648.674	3.48
649.004	3.52
649.334	3.52
649.663	3.56
649.993	3.63
650.323	3.59
650.652	3.55
650.982	3.52
651.311	3.52
651.64	3.53
651.97	3.48
652.299	3.47
652.628	3.49
652.958	3.46
653.287	3.45
653.616	3.44
653.945	3.43
654.274	3.4
654.603	3.41
654.932	3.38
655.261	3.42
655.589	3.45
655.918	3.51
656.247	3.59
656.576	3.62
656.904	3.65
657.233	3.73
657.561	3.76
657.89	3.82
658.218	3.83
658.547	3.89
658.875	3.94
659.203	3.96
659.532	3.94
659.86	3.89
660.188	3.88
660.516	3.9
660.844	3.9
661.172	3.88
661.5	3.83
661.828	3.77
662.156	3.69
662.484	3.59
662.811	3.47
663.139	3.36
663.467	3.29
663.794	3.18
664.122	3.04
664.45	2.98
664.777	2.85
665.104	2.84
665.432	2.71
665.759	2.66
666.086	2.61
666.414	2.69
666.741	2.74
667.068	2.72
667.395	2.69
667.722	2.68
668.049	2.72
668.376	2.75
668.703	2.76
669.03	2.74
669.357	2.78
669.683	2.8
670.01	2.83
670.337	2.87
670.663	2.87
670.99	2.84
671.317	2.84
671.643	2.93
671.969	2.92
672.296	2.99
672.622	3
672.948	2.98
673.275	2.86
673.601	2.78
673.927	2.71
674.253	2.69
674.579	2.63
674.905	2.65
675.231	2.64
675.557	2.68
675.883	2.72
676.209	2.73
676.534	2.76
676.86	2.75
677.186	2.75
677.511	2.8
677.837	2.85
678.162	2.86
678.488	2.84
678.813	2.85
679.139	2.86
679.464	2.9
679.789	2.98
680.114	3.04
680.44	3.09
680.765	3.1
681.09	3.09
681.415	3.1
681.74	3.04
682.065	3
682.39	2.98
682.714	2.95
683.039	2.89
683.364	2.85
683.689	2.87
684.013	2.81
684.338	2.75
684.662	2.75
684.987	2.73
685.311	2.68
685.636	2.66
685.96	2.55
686.284	2.45
686.608	2.4
686.933	2.35
687.257	2.32
687.581	2.38
687.905	2.41
688.229	2.46
688.553	2.47
688.877	2.47
689.201	2.51
689.524	2.48
689.848	2.48
690.172	2.45
690.496	2.45
690.819	2.45
691.143	2.4
691.466	2.34
691.79	2.29
692.113	2.24
692.436	2.17
692.76	2.2
693.083	2.17
693.406	2.11
693.729	2.06
694.053	2
694.376	1.96
694.699	1.99
695.022	2.05
695.344	2.19
695.667	2.4
695.99	2.56
696.313	2.71
696.636	2.86
696.958	2.92
697.281	2.87
697.604	2.89
697.926	2.94
698.249	3
698.571	3.01
698.893	2.96
699.216	2.91
699.538	2.91
699.86	2.93
700.182	2.94
700.504	2.92
700.827	2.97
701.149	2.98
701.471	2.9
701.793	2.83
702.114	2.7
702.436	2.48
702.758	2.21
703.08	1.99
703.401	1.72
703.723	1.58
704.045	1.52
704.366	1.47
704.688	1.44
705.009	1.3
705.331	1.26
705.652	1.39
705.973	1.51
706.294	1.5
706.616	1.52
706.937	1.48
707.258	1.57
707.579	1.52
707.9	1.43
708.221	1.54
708.542	1.55
708.863	1.57
709.183	1.68
709.504	1.71
709.825	1.78
710.145	1.87
710.466	1.83
710.787	1.79
711.107	1.71
711.427	1.67
711.748	1.7
712.068	1.76
712.388	1.82
712.709	1.86
713.029	1.95
713.349	1.89
713.669	1.98
713.989	2.07
714.309	2.16
714.629	2.24
714.949	2.11
715.269	2.07
715.589	2.01
715.908	1.99
716.228	1.99
716.548	1.97
716.867	1.98
717.187	2.01
717.506	2.07
717.826	2.17
718.145	2.2
718.465	2.27
718.784	2.34
719.103	2.25
719.422	2.2
719.741	2.16
720.061	2.29
720.38	2.36
720.699	2.29
721.018	2.3
721.336	2.3
721.655	2.52
721.974	2.6
722.293	2.78
722.612	2.89
722.93	3.05
723.249	3.21
723.567	3.31
723.886	3.46
724.204	3.6
724.523	3.67
724.841	3.87
725.159	4.09
725.477	4.19
725.796	4.48
726.114	4.76
726.432	4.87
726.75	4.99
727.068	5.09
727.386	5.31
727.704	5.55
728.022	5.75
728.339	5.89
728.657	6.09
728.975	6.17
729.292	6.33
729.61	6.38
729.928	6.37
730.245	6.47
730.562	6.55
730.88	6.66
731.197	6.81
731.514	6.9
731.832	6.99
732.149	7.12
732.466	7.2
732.783	7.24
733.1	7.49
733.417	7.73
733.734	7.87
734.051	7.91
734.368	7.94
734.684	8.08
735.001	8.17
735.318	8.22
735.634	8.42
735.951	8.48
736.268	8.76
736.584	9.01
736.9	9.28
737.217	9.51
737.533	9.63
737.849	9.68
738.166	9.78
738.482	9.83
738.798	9.96
739.114	10.01
739.43	10.09
739.746	10.1
740.062	10.11
740.378	10.24
740.693	10.37
741.009	10.6
741.325	10.73
741.641	11
741.956	11.21
742.272	11.32
742.587	11.5
742.903	11.59
743.218	11.74
743.533	11.67
743.849	11.79
744.164	12.06
744.479	12.39
744.794	12.59
745.109	12.67
745.424	12.65
745.739	12.84
746.054	12.95
746.369	13.21
746.684	13.28
746.999	13.3
747.313	13.36
747.628	13.28
747.943	13.46
748.257	13.36
748.572	13.45
748.886	13.5
749.201	13.49
749.515	13.6
749.829	13.83
750.144	14.13
750.458	14.32
750.772	14.35
751.086	14.35
751.4	14.48
751.714	14.59
752.028	14.85
752.342	14.87
752.656	14.98
752.97	14.94
753.284	15.11
753.597	15.2
753.911	15.35
754.225	15.51
754.538	15.52
754.852	15.65
755.165	15.73
755.478	15.76
755.792	15.82
756.105	15.79
756.418	15.76
756.731	15.9
757.045	16.01
757.358	16.19
757.671	16.25
757.984	16.32
758.297	16.42
758.609	16.56
758.922	16.76
759.235	16.89
759.548	16.96
759.86	16.91
760.173	16.82
760.486	16.63
760.798	16.48
761.111	16.37
761.423	16.22
761.735	16.15
762.048	16.14
762.36	16.24
762.672	16.35
762.984	16.46
763.296	16.49
763.608	16.49
763.92	16.56
764.232	16.66
764.544	16.65
764.856	16.77
765.168	16.78
765.48	16.87
765.791	17.03
766.103	17.2
766.414	17.4
766.726	17.69
767.037	18.01
767.349	18.46
767.66	18.85
767.972	19.44
768.283	20.03
768.594	20.76
768.905	21.24
769.216	21.55
769.527	21.81
769.838	22.12
770.149	22.39
770.46	22.52
770.771	22.8
771.082	23.22
771.393	23.42
771.703	23.62
772.014	23.72
772.324	23.72
772.635	23.94
772.945	24.06
773.256	24.44
773.566	24.8
773.877	25.04
774.187	25.3
774.497	25.21
774.807	25.12
775.117	25.04
775.427	25.15
775.737	25.48
776.047	25.52
776.357	25.62
776.667	25.72
776.977	25.86
777.287	25.93
777.596	25.94
777.906	25.93
778.216	26.1
778.525	26.15
778.835	26.39
779.144	26.46
779.453	26.63
779.763	26.69
780.072	26.97
780.381	26.89
780.69	27
781	27.32
781.309	27.6
781.618	27.57
781.927	27.55
782.235	27.6
782.544	27.78
782.853	27.68
783.162	27.87
783.471	28.08
783.779	28.07
784.088	28.14
784.396	28.33
784.705	28.19
785.013	27.95
785.322	27.76
785.63	27.61
785.938	27.52
786.246	27.46
786.554	27.18
786.863	27.36
787.171	27.21
787.479	27.45
787.787	27.42
788.094	27.35
788.402	27.34
788.71	27.31
789.018	27.17
789.326	27.29
789.633	27.34
789.941	27.28
790.248	27.54
790.556	27.77
790.863	27.97
791.171	28.11
791.478	28.36
791.785	28.65
792.092	28.88
792.399	28.93
792.707	29.03
793.014	29.32
793.321	29.5
793.628	29.55
793.934	29.5
794.241	29.73
794.548	29.93
794.855	29.93
795.161	29.85
795.468	30.13
795.775	30.13
796.081	30.1
796.388	30.21
796.694	30.18
797	30.17
797.307	30.1
797.613	30.12
797.919	30.24
798.225	30.15
798.531	30.31
798.837	30.73
799.143	30.85
799.449	31.09
799.755	30.96
800.061	31.53
800.367	31.76
800.672	31.77
800.978	31.86
801.284	32.08
801.589	32.36
801.895	32.42
802.2	32.87
802.506	33.17
802.811	32.92
803.116	33.16
803.421	33.03
803.727	33.45
804.032	33.63
804.337	33.95
804.642	34.25
804.947	34.3
805.252	34.55
805.556	34.86
805.861	35
806.166	35.3
806.471	35.21
806.775	35.28
807.08	35.34
807.384	35.57
807.689	35.39
807.993	35.29
808.298	35.48
808.602	35.47
808.906	35.25
809.211	35.92
809.515	35.92
809.819	36.25
810.123	36.16
810.427	36.26
810.731	36.13
811.035	36.12
811.338	36.43
811.642	36.47
811.946	36.62
812.25	36.74
812.553	36.86
812.857	36.82
813.16	36.65
813.464	36.57
813.767	36.72
814.07	37.25
814.374	37.57
814.677	37.62
814.98	37.69
815.283	37.74
815.586	37.58
815.889	37.25
816.192	37.13
816.495	36.89
816.798	36.58
817.101	36.26
817.404	35.83
817.706	35.07
818.009	33.93
818.312	32.88
818.614	31.36
818.917	29.32
819.219	26.91
819.521	24.33
819.824	22.46
820.126	20.73
820.428	19.61
820.73	18.65
821.032	18
821.334	17.6
821.636	17.31
821.938	17.06
822.24	16.96
822.542	16.85
822.844	16.74
823.145	16.69
823.447	16.58
823.749	16.53
824.05	16.43
824.352	16.34
824.653	16.27
824.955	16.19
825.256	16.23
825.557	16.36
825.858	16.68
826.16	16.98
826.461	17.48
826.762	17.97
827.063	18.57
827.364	19.09
827.665	19.5
827.965	20
828.266	20.53
828.567	20.94
828.868	21.28
829.168	21.52
829.469	21.78
829.769	22.22
830.07	22.47
830.37	22.72
830.67	23.22
830.971	23.61
831.271	24.23
831.571	24.74
831.871	25.13
832.171	25.45
832.471	25.83
832.771	26.14
833.071	26.32
833.371	26.65
833.671	26.92
833.971	27.14
834.27	27.4
834.57	27.4
834.869	27.4
835.169	27.71
835.468	27.85
835.768	27.82
836.067	27.91
836.367	28.09
836.666	28.61
836.965	28.83
837.264	29.41
837.563	30.07
837.862	31.08
838.161	32.18
838.46	33.36
838.759	34.02
839.058	34.97
839.356	35.68
839.655	36.41
839.954	37.38
840.252	37.85
840.551	37.74
840.849	37.95
841.148	38.27
841.446	38.14
841.744	38.75
842.043	39.49
842.341	40.3
842.639	41.22
842.937	41.98
843.235	43.24
843.533	44.13
843.831	45.21
844.129	46.24
844.427	47.24
844.724	48.13
845.022	49.87
845.32	50.72
845.617	51.95
845.915	52.86
846.212	53.21
846.51	53.89
846.807	55.46
847.104	56.59
847.402	57.62
847.699	58.11
847.996	58.46
848.293	59.08
848.59	58.51
848.887	57.61
849.184	57.11
849.481	57.13
849.778	57.36
850.074	57.1
850.371	56.69
850.668	56.93
850.964	57.09
851.261	56.89
851.557	57.25
851.854	57.78
852.15	57.95
852.446	58.39
852.743	59.07
853.039	58.89
853.335	59.51
853.631	59.83
853.927	60.25
854.223	60.8
854.519	61.25
854.815	61.3
855.111	60.88
855.406	60.24
855.702	59.65
855.998	59.42
856.293	59.88
856.589	59.87
856.884	59.94
857.18	60.23
857.475	61.12
857.77	60.99
858.066	61.26
858.361	61.27
858.656	61.04
858.951	60.63
859.246	60.81
859.541	60.32
859.836	59.78
860.131	60.1
860.426	59.79
860.72	58.94
861.015	59.32
861.31	60.48
861.604	61.11
861.899	61.64
862.193	61.28
862.487	61.05
862.782	61.18
863.076	60.99
863.37	60.05
863.664	59.98
863.959	60.25
864.253	60.35
864.547	60.62
864.841	59.96
865.135	59.89
865.428	59.45
865.722	59.23
866.016	60.25
866.31	59.65
866.603	58.87
866.897	59.13
867.19	59.65
867.484	59.43
867.777	59.14
868.07	60.14
868.364	61.36
868.657	61.88
868.95	61.98
869.243	62.82
869.536	63.57
869.829	62.5
870.122	62.08
870.415	61.25
870.708	60.86
871	61.25
871.293	61.51
871.586	62.38
871.878	62.26
872.171	61.86
872.463	61.88
872.756	62.06
873.048	62.47
873.341	61.53
873.633	61.93
873.925	62.85
874.217	62.4
874.509	61.95
874.801	61.52
875.093	61.86
875.385	61.38
875.677	61.33
875.969	62
