Data from pcis_p_h3_p4_Reflection_2.txt Node
Date: Wed Jul 12 17:54:04 ART 2017
User: rodoncho
Spectrometer: USB2E3644
Trigger mode: 4
Integration Time (sec): 6.000000E-2
Scans to average: 10
Electric dark correction enabled: true
Nonlinearity correction enabled: false
Boxcar width: 10
XAxis mode: Wavelengths
Number of Pixels in Spectrum: 2048
>>>>>Begin Spectral Data<<<<<
178.315	-13.04
178.696	38.82
179.076	57.63
179.457	87.27
179.838	120.47
180.218	146.59
180.599	2614.29
180.979	-200
181.36	24.09
181.74	16.3
182.121	47.37
182.501	120.11
182.881	141.3
183.262	216.75
183.642	-880.65
184.022	-91.16
184.402	14.37
184.783	61.12
185.163	63.36
185.543	68.32
185.923	72.41
186.303	74.54
186.683	79.34
187.063	83.61
187.443	87.76
187.823	92.9
188.203	93.15
188.583	96.76
188.963	93.64
189.343	89.3
189.723	88.06
190.102	91.04
190.482	93.89
190.862	96.53
191.242	99.48
191.621	102.42
192.001	101.96
192.38	104.67
192.76	104.28
193.14	102.74
193.519	101.34
193.898	102.25
194.278	103.04
194.657	104.03
195.037	104.18
195.416	105.54
195.795	105.5
196.175	108.46
196.554	109.03
196.933	111.31
197.312	114.04
197.692	114.92
198.071	116.68
198.45	118.77
198.829	119.12
199.208	119.54
199.587	119.53
199.966	118.7
200.345	118.01
200.724	116.51
201.103	117.66
201.482	117.78
201.86	116.31
202.239	118.67
202.618	118.22
202.997	117.78
203.375	116.96
203.754	116.37
204.133	114.51
204.511	112.91
204.89	112.4
205.269	112.23
205.647	111.8
206.026	112.35
206.404	111.1
206.782	110.51
207.161	109.46
207.539	109.18
207.918	109.52
208.296	108.9
208.674	109.38
209.052	109.22
209.431	110.03
209.809	110.31
210.187	109.2
210.565	109.95
210.943	111.54
211.321	111.64
211.699	111.07
212.077	109.48
212.455	109.12
212.833	108.85
213.211	108.33
213.589	110.63
213.967	110.09
214.345	110.74
214.722	109.35
215.1	108.09
215.478	106.23
215.855	105.89
216.233	106.5
216.611	106.01
216.988	105.9
217.366	106.52
217.743	106
218.121	105.36
218.498	104.25
218.876	103.44
219.253	104.39
219.631	104.97
220.008	106.67
220.385	107.86
220.762	107.46
221.14	107.59
221.517	105.23
221.894	103.61
222.271	102.97
222.648	103.24
223.025	105.04
223.402	105.82
223.78	106.27
224.157	105.73
224.533	106.55
224.91	107.06
225.287	106.52
225.664	106.91
226.041	107.75
226.418	107.84
226.795	107.31
227.171	106.68
227.548	106.61
227.925	106.9
228.301	109
228.678	109.82
229.055	109.94
229.431	111.11
229.808	111.97
230.184	112.84
230.561	114.4
230.937	112.32
231.313	112.82
231.69	111.7
232.066	111.25
232.442	112.28
232.819	113.36
233.195	113.64
233.571	113.96
233.947	113.85
234.323	114.26
234.699	114.55
235.075	114.59
235.451	115.02
235.827	114.87
236.203	113.02
236.579	113.2
236.955	113.73
237.331	114.55
237.707	117.25
238.083	120.44
238.459	124.53
238.834	131.96
239.21	137.23
239.586	143.39
239.961	148.53
240.337	149.04
240.713	149.33
241.088	150.59
241.464	154.18
241.839	160.7
242.215	170.5
242.59	185.84
242.965	212.24
243.341	268.12
243.716	363.51
244.091	539.54
244.467	825.95
244.842	1838
245.217	-18198.11
245.592	-4497.21
245.967	-3281.57
246.343	-4859.39
246.718	-11569.88
247.093	-20342.55
247.468	-20508.51
247.843	-4073.22
248.218	-1680.72
248.593	-972.53
248.967	-676.09
249.342	-582.9
249.717	-598.33
250.092	-639.11
250.467	-745.25
250.841	-1123.71
251.216	-9204.67
251.591	1465.54
251.965	740.83
252.34	573.65
252.714	486.21
253.089	403.8
253.463	394.8
253.838	399.72
254.212	425.14
254.587	464.78
254.961	539.87
255.335	796.78
255.71	2187.96
256.084	-1211.33
256.458	-444.12
256.832	-291.17
257.206	-230.54
257.581	-203.53
257.955	-185.91
258.329	-175.45
258.703	-163.61
259.077	-155.99
259.451	-146.33
259.825	-137.46
260.199	-128.6
260.572	-124.68
260.946	-117.39
261.32	-111.68
261.694	-106.49
262.068	-102.73
262.441	-100.41
262.815	-98.91
263.189	-100.91
263.562	-106.16
263.936	-121.03
264.309	-146.04
264.683	-176.16
265.056	-198.92
265.43	-205.25
265.803	-201.82
266.176	-192.83
266.55	-189.64
266.923	-180.81
267.296	-170.62
267.67	-161.75
268.043	-152.35
268.416	-140.85
268.789	-128.73
269.162	-118.61
269.535	-111.83
269.908	-106.49
270.281	-103.56
270.654	-103.66
271.027	-104.72
271.4	-106.48
271.773	-107.36
272.146	-105.89
272.519	-98.24
272.891	-94
273.264	-94.43
273.637	-95.29
274.01	-95.54
274.382	-95.4
274.755	-94.33
275.127	-93.52
275.5	-92.95
275.872	-92.02
276.245	-92.69
276.617	-95.02
276.99	-98.79
277.362	-102.34
277.734	-104.8
278.107	-102.65
278.479	-98.83
278.851	-94.93
279.223	-91.2
279.596	-88.08
279.968	-86.88
280.34	-88.61
280.712	-85.95
281.084	-79.42
281.456	-72.03
281.828	-66.54
282.2	-61.53
282.572	-57.4
282.944	-54.75
283.315	-53.74
283.687	-53.23
284.059	-52.97
284.431	-52.64
284.802	-52.06
285.174	-50.09
285.546	-47.9
285.917	-47.02
286.289	-45.26
286.66	-44.14
287.032	-43.99
287.403	-43.07
287.775	-42.19
288.146	-41.76
288.518	-42.01
288.889	-42.31
289.26	-43.75
289.632	-44.82
290.003	-46.27
290.374	-47.95
290.745	-48.75
291.116	-47.84
291.487	-47.02
291.858	-46.36
292.229	-45.75
292.6	-43.59
292.971	-42.13
293.342	-39.91
293.713	-37.95
294.084	-36.93
294.455	-35.6
294.826	-34.38
295.196	-34.49
295.567	-34.56
295.938	-34.15
296.308	-33.91
296.679	-33.28
297.05	-32.21
297.42	-31.46
297.791	-29.96
298.161	-28.7
298.532	-27.8
298.902	-27.74
299.272	-27.36
299.643	-26.01
300.013	-25.2
300.383	-25.25
300.754	-25.17
301.124	-25.93
301.494	-26.01
301.864	-26.29
302.234	-26.52
302.604	-26.76
302.974	-26.4
303.344	-26.18
303.714	-25.72
304.084	-25.06
304.454	-24.68
304.824	-23.99
305.194	-23.32
305.563	-22.68
305.933	-21.78
306.303	-20.91
306.673	-19.84
307.042	-18.83
307.412	-18.31
307.781	-17.13
308.151	-16.09
308.521	-15.44
308.89	-14.84
309.259	-14.3
309.629	-13.76
309.998	-13.6
310.368	-13.36
310.737	-12.93
311.106	-12.25
311.475	-11.71
311.845	-11.46
312.214	-11.36
312.583	-11.08
312.952	-10.75
313.321	-10.89
313.69	-10.81
314.059	-11.23
314.428	-11.61
314.797	-12.06
315.166	-12.52
315.535	-13.15
315.904	-13.44
316.272	-13.76
316.641	-14.19
317.01	-14.51
317.379	-14.53
317.747	-13.86
318.116	-13.37
318.484	-12.87
318.853	-12.38
319.221	-12.43
319.59	-12.03
319.958	-11.57
320.327	-11.35
320.695	-10.99
321.063	-10.46
321.432	-10.1
321.8	-9.41
322.168	-8.37
322.536	-7.43
322.905	-6.3
323.273	-5.72
323.641	-5.48
324.009	-5.14
324.377	-4.61
324.745	-4.2
325.113	-3.89
325.481	-3.52
325.849	-3.07
326.216	-2.79
326.584	-2.52
326.952	-2.05
327.32	-1.68
327.687	-1.1
328.055	-0.8
328.423	-0.59
328.79	-0.46
329.158	-0.31
329.525	-0.04
329.893	0.12
330.26	0.32
330.628	0.2
330.995	0.51
331.362	0.8
331.73	1.35
332.097	1.79
332.464	2.24
332.831	2.4
333.199	2.52
333.566	2.75
333.933	2.93
334.3	2.85
334.667	3.13
335.034	3.35
335.401	3.49
335.768	3.54
336.135	3.78
336.502	4.03
336.868	4.36
337.235	4.61
337.602	4.82
337.969	5.17
338.335	5.41
338.702	5.65
339.069	6.01
339.435	6.16
339.802	6.33
340.168	6.59
340.535	6.89
340.901	7.05
341.267	7.22
341.634	7.45
342	7.98
342.366	8.21
342.733	8.43
343.099	8.61
343.465	8.94
343.831	9.14
344.197	9.33
344.563	9.45
344.929	9.6
345.295	9.91
345.661	9.94
346.027	10.16
346.393	10.36
346.759	10.35
347.125	10.3
347.491	10.44
347.856	10.55
348.222	10.65
348.588	10.74
348.953	10.79
349.319	10.94
349.684	10.93
350.05	11.04
350.415	11.22
350.781	11.42
351.146	11.64
351.512	11.73
351.877	11.84
352.242	11.87
352.608	11.97
352.973	11.96
353.338	12.07
353.703	12.14
354.068	12.33
354.433	12.57
354.798	12.91
355.164	13.1
355.528	13.08
355.893	13.27
356.258	13.46
356.623	13.63
356.988	13.68
357.353	13.79
357.718	13.84
358.082	14.01
358.447	14.03
358.812	13.97
359.176	14.12
359.541	14.19
359.905	14.36
360.27	14.5
360.634	14.63
360.999	14.7
361.363	14.81
361.728	14.79
362.092	14.73
362.456	14.67
362.821	14.67
363.185	14.8
363.549	14.72
363.913	14.74
364.277	14.84
364.641	14.98
365.005	15.06
365.369	15.15
365.733	15.24
366.097	15.43
366.461	15.57
366.825	15.62
367.189	15.75
367.553	15.91
367.916	16.01
368.28	16.09
368.644	16.3
369.007	16.4
369.371	16.52
369.734	16.71
370.098	16.93
370.461	17.05
370.825	17.14
371.188	17.35
371.552	17.59
371.915	17.66
372.278	17.74
372.642	17.9
373.005	18.02
373.368	18.01
373.731	18.03
374.094	18.11
374.457	18.19
374.82	18.23
375.183	18.3
375.546	18.41
375.909	18.45
376.272	18.47
376.635	18.55
376.998	18.57
377.361	18.64
377.723	18.68
378.086	18.77
378.449	18.83
378.811	18.96
379.174	18.95
379.537	19.05
379.899	19.2
380.262	19.26
380.624	19.28
380.987	19.36
381.349	19.41
381.711	19.46
382.074	19.52
382.436	19.56
382.798	19.57
383.16	19.54
383.522	19.62
383.884	19.63
384.247	19.71
384.609	19.81
384.971	19.83
385.333	19.83
385.695	19.86
386.056	19.89
386.418	19.83
386.78	19.85
387.142	19.82
387.504	19.77
387.865	19.71
388.227	19.74
388.589	19.78
388.95	19.77
389.312	19.74
389.673	19.71
390.035	19.72
390.396	19.7
390.758	19.67
391.119	19.65
391.48	19.62
391.842	19.58
392.203	19.54
392.564	19.54
392.925	19.55
393.286	19.54
393.648	19.53
394.009	19.52
394.37	19.52
394.731	19.56
395.092	19.53
395.452	19.55
395.813	19.54
396.174	19.49
396.535	19.5
396.896	19.54
397.257	19.55
397.617	19.58
397.978	19.58
398.338	19.64
398.699	19.69
399.06	19.7
399.42	19.66
399.781	19.67
400.141	19.64
400.501	19.59
400.862	19.58
401.222	19.6
401.582	19.61
401.943	19.58
402.303	19.56
402.663	19.57
403.023	19.58
403.383	19.58
403.743	19.57
404.103	19.6
404.463	19.61
404.823	19.6
405.183	19.59
405.543	19.59
405.903	19.58
406.262	19.53
406.622	19.59
406.982	19.62
407.342	19.62
407.701	19.66
408.061	19.68
408.42	19.67
408.78	19.68
409.139	19.7
409.499	19.73
409.858	19.72
410.217	19.74
410.577	19.76
410.936	19.79
411.295	19.82
411.655	19.73
412.014	19.68
412.373	19.69
412.732	19.63
413.091	19.6
413.45	19.55
413.809	19.51
414.168	19.41
414.527	19.34
414.886	19.25
415.245	19.17
415.603	19.09
415.962	19.01
416.321	18.9
416.679	18.82
417.038	18.69
417.397	18.6
417.755	18.51
418.114	18.44
418.472	18.38
418.831	18.32
419.189	18.27
419.547	18.2
419.906	18.13
420.264	18.07
420.622	17.99
420.981	17.94
421.339	17.9
421.697	17.84
422.055	17.79
422.413	17.76
422.771	17.74
423.129	17.71
423.487	17.68
423.845	17.68
424.203	17.69
424.56	17.7
424.918	17.69
425.276	17.7
425.634	17.68
425.991	17.68
426.349	17.69
426.707	17.7
427.064	17.73
427.422	17.74
427.779	17.8
428.137	17.85
428.494	17.89
428.851	17.9
429.209	17.95
429.566	17.97
429.923	18.02
430.28	18.03
430.637	18.09
430.995	18.12
431.352	18.13
431.709	18.12
432.066	18.16
432.423	18.2
432.78	18.21
433.137	18.24
433.493	18.24
433.85	18.26
434.207	18.28
434.564	18.29
434.92	18.29
435.277	18.28
435.634	18.29
435.99	18.28
436.347	18.3
436.703	18.31
437.06	18.34
437.416	18.31
437.773	18.32
438.129	18.32
438.485	18.34
438.841	18.34
439.198	18.35
439.554	18.33
439.91	18.32
440.266	18.31
440.622	18.27
440.978	18.26
441.334	18.22
441.69	18.18
442.046	18.12
442.402	18.06
442.758	18
443.113	17.97
443.469	17.91
443.825	17.87
444.181	17.83
444.536	17.81
444.892	17.79
445.247	17.76
445.603	17.72
445.958	17.68
446.314	17.64
446.669	17.62
447.025	17.58
447.38	17.53
447.735	17.51
448.09	17.49
448.446	17.45
448.801	17.42
449.156	17.39
449.511	17.4
449.866	17.41
450.221	17.43
450.576	17.41
450.931	17.44
451.286	17.41
451.641	17.4
451.995	17.39
452.35	17.39
452.705	17.37
453.06	17.38
453.414	17.4
453.769	17.4
454.123	17.4
454.478	17.41
454.832	17.43
455.187	17.42
455.541	17.4
455.896	17.39
456.25	17.4
456.604	17.42
456.958	17.44
457.313	17.44
457.667	17.45
458.021	17.49
458.375	17.53
458.729	17.58
459.083	17.63
459.437	17.68
459.791	17.73
460.145	17.79
460.499	17.85
460.852	17.9
461.206	17.97
461.56	18.04
461.914	18.12
462.267	18.21
462.621	18.31
462.974	18.44
463.328	18.6
463.681	18.73
464.035	18.9
464.388	19.03
464.742	19.18
465.095	19.31
465.448	19.44
465.801	19.53
466.155	19.62
466.508	19.74
466.861	19.81
467.214	19.88
467.567	19.96
467.92	20.01
468.273	20.07
468.626	20.12
468.979	20.14
469.332	20.19
469.684	20.23
470.037	20.28
470.39	20.32
470.743	20.36
471.095	20.43
471.448	20.46
471.8	20.5
472.153	20.54
472.505	20.55
472.858	20.54
473.21	20.54
473.562	20.53
473.915	20.49
474.267	20.46
474.619	20.4
474.971	20.35
475.324	20.3
475.676	20.22
476.028	20.16
476.38	20.11
476.732	20.04
477.084	19.98
477.436	19.87
477.787	19.77
478.139	19.65
478.491	19.52
478.843	19.38
479.195	19.21
479.546	19.01
479.898	18.8
480.249	18.61
480.601	18.47
480.952	18.35
481.304	18.27
481.655	18.2
482.007	18.15
482.358	18.09
482.709	18.05
483.061	18.02
483.412	17.99
483.763	17.96
484.114	17.94
484.465	17.92
484.816	17.91
485.167	17.91
485.518	17.91
485.869	17.92
486.22	17.94
486.571	17.98
486.922	18.02
487.272	18.08
487.623	18.16
487.974	18.25
488.324	18.35
488.675	18.45
489.025	18.53
489.376	18.62
489.726	18.74
490.077	18.84
490.427	18.94
490.778	19.06
491.128	19.21
491.478	19.37
491.828	19.55
492.179	19.73
492.529	19.93
492.879	20.13
493.229	20.3
493.579	20.48
493.929	20.64
494.279	20.81
494.629	21.02
494.979	21.24
495.328	21.49
495.678	21.8
496.028	22.1
496.378	22.39
496.727	22.67
497.077	22.9
497.426	23.16
497.776	23.38
498.125	23.59
498.475	23.81
498.824	24.01
499.174	24.2
499.523	24.42
499.872	24.62
500.221	24.86
500.571	25.09
500.92	25.32
501.269	25.56
501.618	25.79
501.967	25.98
502.316	26.23
502.665	26.46
503.014	26.68
503.363	26.87
503.711	27.08
504.06	27.25
504.409	27.44
504.758	27.55
505.106	27.71
505.455	27.84
505.803	27.96
506.152	28.09
506.5	28.21
506.849	28.34
507.197	28.44
507.546	28.54
507.894	28.65
508.242	28.77
508.59	28.85
508.939	28.94
509.287	29.03
509.635	29.09
509.983	29.15
510.331	29.21
510.679	29.28
511.027	29.33
511.375	29.4
511.723	29.46
512.07	29.55
512.418	29.64
512.766	29.75
513.114	29.83
513.461	29.9
513.809	29.99
514.156	30.03
514.504	30.09
514.851	30.12
515.199	30.17
515.546	30.19
515.893	30.22
516.241	30.25
516.588	30.29
516.935	30.35
517.282	30.39
517.63	30.41
517.977	30.44
518.324	30.47
518.671	30.48
519.018	30.5
519.365	30.53
519.711	30.52
520.058	30.53
520.405	30.56
520.752	30.56
521.099	30.55
521.445	30.57
521.792	30.58
522.138	30.61
522.485	30.65
522.832	30.67
523.178	30.7
523.524	30.76
523.871	30.77
524.217	30.79
524.563	30.76
524.91	30.76
525.256	30.79
525.602	30.81
525.948	30.84
526.294	30.8
526.64	30.77
526.986	30.77
527.332	30.76
527.678	30.74
528.024	30.73
528.37	30.74
528.716	30.73
529.061	30.74
529.407	30.74
529.753	30.74
530.098	30.73
530.444	30.72
530.789	30.7
531.135	30.68
531.48	30.67
531.826	30.69
532.171	30.69
532.516	30.67
532.862	30.68
533.207	30.66
533.552	30.69
533.897	30.7
534.242	30.72
534.587	30.74
534.932	30.75
535.277	30.77
535.622	30.78
535.967	30.81
536.312	30.79
536.657	30.83
537.001	30.84
537.346	30.84
537.691	30.86
538.035	30.89
538.38	30.9
538.724	30.92
539.069	30.92
539.413	30.91
539.758	30.89
540.102	30.89
540.446	30.87
540.791	30.88
541.135	30.89
541.479	30.89
541.823	30.89
542.167	30.89
542.512	30.87
542.856	30.86
543.2	30.85
543.543	30.87
543.887	30.85
544.231	30.84
544.575	30.86
544.919	30.85
545.262	30.85
545.606	30.87
545.95	30.87
546.293	30.88
546.637	30.88
546.98	30.91
547.324	30.89
547.667	30.93
548.011	30.9
548.354	30.92
548.697	30.91
549.04	30.92
549.384	30.93
549.727	30.98
550.07	30.96
550.413	30.95
550.756	30.92
551.099	30.91
551.442	30.93
551.785	30.95
552.128	30.96
552.47	30.95
552.813	30.94
553.156	30.9
553.499	30.9
553.841	30.89
554.184	30.87
554.526	30.85
554.869	30.85
555.211	30.86
555.554	30.82
555.896	30.78
556.238	30.76
556.581	30.74
556.923	30.69
557.265	30.69
557.607	30.69
557.949	30.68
558.291	30.66
558.633	30.63
558.975	30.57
559.317	30.53
559.659	30.51
560.001	30.48
560.343	30.46
560.685	30.45
561.026	30.44
561.368	30.38
561.71	30.36
562.051	30.33
562.393	30.29
562.734	30.26
563.076	30.23
563.417	30.21
563.759	30.19
564.1	30.18
564.441	30.18
564.782	30.13
565.124	30.11
565.465	30.09
565.806	30.07
566.147	30.08
566.488	30.06
566.829	30.03
567.17	30
567.511	29.96
567.851	29.92
568.192	29.93
568.533	29.9
568.874	29.89
569.214	29.89
569.555	29.87
569.895	29.85
570.236	29.84
570.576	29.78
570.917	29.77
571.257	29.73
571.598	29.68
571.938	29.66
572.278	29.65
572.618	29.62
572.959	29.57
573.299	29.51
573.639	29.49
573.979	29.45
574.319	29.43
574.659	29.44
574.999	29.41
575.339	29.36
575.678	29.38
576.018	29.32
576.358	29.26
576.698	29.26
577.037	29.24
577.377	29.21
577.716	29.2
578.056	29.14
578.395	29.11
578.735	29.06
579.074	29.01
579.413	28.97
579.753	28.96
580.092	28.97
580.431	28.95
580.77	28.92
581.109	28.93
581.448	28.88
581.787	28.85
582.126	28.8
582.465	28.8
582.804	28.75
583.143	28.76
583.482	28.71
583.82	28.68
584.159	28.66
584.498	28.67
584.836	28.66
585.175	28.61
585.514	28.58
585.852	28.63
586.19	28.61
586.529	28.58
586.867	28.62
587.205	28.6
587.544	28.63
587.882	28.6
588.22	28.57
588.558	28.57
588.896	28.57
589.234	28.61
589.572	28.58
589.91	28.55
590.248	28.5
590.586	28.49
590.924	28.46
591.262	28.44
591.599	28.36
591.937	28.33
592.275	28.35
592.612	28.32
592.95	28.27
593.287	28.32
593.625	28.32
593.962	28.29
594.299	28.32
594.637	28.28
594.974	28.33
595.311	28.32
595.648	28.32
595.985	28.29
596.322	28.29
596.659	28.26
596.996	28.23
597.333	28.19
597.67	28.19
598.007	28.19
598.344	28.18
598.681	28.2
599.017	28.18
599.354	28.17
599.691	28.17
600.027	28.18
600.364	28.11
600.7	28.08
601.037	28.07
601.373	28.06
601.71	28.06
602.046	28.03
602.382	28.01
602.718	28
603.054	27.98
603.391	27.94
603.727	27.95
604.063	27.94
604.399	27.97
604.735	27.95
605.071	27.95
605.406	27.97
605.742	27.99
606.078	28.03
606.414	28.02
606.749	28.03
607.085	28.02
607.421	28.02
607.756	28.02
608.092	27.98
608.427	27.9
608.762	27.85
609.098	27.79
609.433	27.74
609.768	27.71
610.104	27.69
610.439	27.67
610.774	27.64
611.109	27.64
611.444	27.6
611.779	27.59
612.114	27.57
612.449	27.49
612.784	27.41
613.118	27.35
613.453	27.28
613.788	27.21
614.123	27.15
614.457	27.11
614.792	27.05
615.126	27.02
615.461	27.01
615.795	26.98
616.13	26.98
616.464	26.98
616.798	26.99
617.132	26.97
617.467	26.96
617.801	26.92
618.135	26.96
618.469	26.94
618.803	26.92
619.137	26.9
619.471	26.93
619.805	26.93
620.139	26.9
620.472	26.87
620.806	26.86
621.14	26.83
621.473	26.82
621.807	26.81
622.141	26.8
622.474	26.78
622.808	26.77
623.141	26.78
623.474	26.79
623.808	26.82
624.141	26.88
624.474	26.88
624.807	26.9
625.141	26.84
625.474	26.85
625.807	26.86
626.14	26.84
626.473	26.87
626.806	26.88
627.138	26.86
627.471	26.89
627.804	26.9
628.137	26.92
628.469	26.91
628.802	26.93
629.135	26.89
629.467	26.88
629.8	26.88
630.132	26.89
630.465	26.89
630.797	26.85
631.129	26.79
631.461	26.72
631.794	26.7
632.126	26.74
632.458	26.76
632.79	26.73
633.122	26.72
633.454	26.69
633.786	26.69
634.118	26.73
634.45	26.7
634.781	26.69
635.113	26.67
635.445	26.68
635.777	26.62
636.108	26.61
636.44	26.63
636.771	26.62
637.103	26.58
637.434	26.54
637.765	26.53
638.097	26.56
638.428	26.61
638.759	26.58
639.09	26.53
639.422	26.49
639.753	26.48
640.084	26.48
640.415	26.45
640.746	26.44
641.077	26.41
641.407	26.42
641.738	26.38
642.069	26.39
642.4	26.34
642.73	26.36
643.061	26.33
643.392	26.34
643.722	26.34
644.053	26.29
644.383	26.3
644.713	26.26
645.044	26.16
645.374	26.11
645.704	26.12
646.034	26.19
646.365	26.16
646.695	26.17
647.025	26.16
647.355	26.16
647.685	26.15
648.015	26.2
648.344	26.2
648.674	26.25
649.004	26.2
649.334	26.24
649.663	26.25
649.993	26.28
650.323	26.27
650.652	26.28
650.982	26.31
651.311	26.26
651.64	26.3
651.97	26.29
652.299	26.28
652.628	26.28
652.958	26.21
653.287	26.22
653.616	26.23
653.945	26.22
654.274	26.21
654.603	26.18
654.932	26.11
655.261	26.12
655.589	26.19
655.918	26.35
656.247	26.34
656.576	26.4
656.904	26.42
657.233	26.46
657.561	26.47
657.89	26.48
658.218	26.51
658.547	26.49
658.875	26.57
659.203	26.6
659.532	26.59
659.86	26.53
660.188	26.51
660.516	26.48
660.844	26.5
661.172	26.5
661.5	26.51
661.828	26.46
662.156	26.39
662.484	26.24
662.811	26.11
663.139	26.06
663.467	25.98
663.794	25.94
664.122	25.91
664.45	25.82
664.777	25.84
665.104	25.84
665.432	25.8
665.759	25.7
666.086	25.7
666.414	25.76
666.741	25.87
667.068	25.98
667.395	25.97
667.722	25.95
668.049	25.96
668.376	25.95
668.703	25.94
669.03	25.98
669.357	26.01
669.683	25.95
670.01	26
670.337	26.03
670.663	26.08
670.99	26.02
671.317	26.05
671.643	26.02
671.969	26.05
672.296	26.15
672.622	26.19
672.948	26.16
673.275	26.04
673.601	26.02
673.927	25.92
674.253	25.97
674.579	26.02
674.905	25.98
675.231	25.95
675.557	26.08
675.883	26.13
676.209	26.19
676.534	26.27
676.86	26.32
677.186	26.37
677.511	26.37
677.837	26.42
678.162	26.41
678.488	26.42
678.813	26.41
679.139	26.38
679.464	26.41
679.789	26.37
680.114	26.38
680.44	26.4
680.765	26.35
681.09	26.33
681.415	26.26
681.74	26.24
682.065	26.28
682.39	26.2
682.714	26.17
683.039	26.1
683.364	26.11
683.689	26.01
684.013	25.92
684.338	25.87
684.662	25.83
684.987	25.78
685.311	25.74
685.636	25.67
685.96	25.67
686.284	25.64
686.608	25.73
686.933	25.77
687.257	25.71
687.581	25.74
687.905	25.72
688.229	25.75
688.553	25.85
688.877	25.82
689.201	25.83
689.524	25.79
689.848	25.8
690.172	25.8
690.496	25.86
690.819	25.83
691.143	25.81
691.466	25.82
691.79	25.9
692.113	25.89
692.436	25.8
692.76	25.63
693.083	25.56
693.406	25.47
693.729	25.48
694.053	25.5
694.376	25.56
694.699	25.65
695.022	25.7
695.344	25.76
695.667	25.87
695.99	25.95
696.313	26.08
696.636	26.19
696.958	26.17
697.281	26.22
697.604	26.25
697.926	26.27
698.249	26.35
698.571	26.31
698.893	26.34
699.216	26.37
699.538	26.46
699.86	26.47
700.182	26.47
700.504	26.44
700.827	26.47
701.149	26.45
701.471	26.34
701.793	26.33
702.114	26.19
702.436	25.97
702.758	25.83
703.08	25.69
703.401	25.46
703.723	25.42
704.045	25.27
704.366	25.15
704.688	25.2
705.009	25.06
705.331	25.04
705.652	25.05
705.973	25.08
706.294	25.1
706.616	25.17
706.937	25.14
707.258	25.17
707.579	25.15
707.9	25.14
708.221	25.23
708.542	25.15
708.863	25.29
709.183	25.46
709.504	25.52
709.825	25.5
710.145	25.63
710.466	25.6
710.787	25.58
711.107	25.74
711.427	25.63
711.748	25.56
712.068	25.53
712.388	25.53
712.709	25.6
713.029	25.64
713.349	25.63
713.669	25.66
713.989	25.65
714.309	25.66
714.629	25.65
714.949	25.67
715.269	25.65
715.589	25.52
715.908	25.51
716.228	25.49
716.548	25.5
716.867	25.49
717.187	25.59
717.506	25.7
717.826	25.67
718.145	25.68
718.465	25.87
718.784	26.03
719.103	26.06
719.422	26.11
719.741	26.21
720.061	26.28
720.38	26.35
720.699	26.41
721.018	26.45
721.336	26.52
721.655	26.63
721.974	26.76
722.293	26.94
722.612	27.07
722.93	27.12
723.249	27.29
723.567	27.39
723.886	27.48
724.204	27.61
724.523	27.76
724.841	27.91
725.159	27.97
725.477	28.15
725.796	28.2
726.114	28.27
726.432	28.26
726.75	28.42
727.068	28.5
727.386	28.7
727.704	28.88
728.022	29
728.339	28.98
728.657	29.22
728.975	29.3
729.292	29.4
729.61	29.53
729.928	29.61
730.245	29.62
730.562	29.57
730.88	29.63
731.197	29.79
731.514	29.99
731.832	30.04
732.149	30.06
732.466	30.19
732.783	30.2
733.1	30.31
733.417	30.41
733.734	30.63
734.051	30.63
734.368	30.68
734.684	30.71
735.001	30.73
735.318	30.64
735.634	30.62
735.951	30.61
736.268	30.78
736.584	30.9
736.9	31.15
737.217	31.39
737.533	31.38
737.849	31.39
738.166	31.36
738.482	31.42
738.798	31.47
739.114	31.58
739.43	31.82
739.746	31.94
740.062	31.94
740.378	31.96
740.693	32.07
741.009	32.21
741.325	32.4
741.641	32.72
741.956	33.08
742.272	33.32
742.587	33.59
742.903	33.59
743.218	33.73
743.533	33.63
743.849	33.59
744.164	33.71
744.479	33.72
744.794	33.88
745.109	33.99
745.424	34.11
745.739	34.16
746.054	34.13
746.369	34.27
746.684	34.17
746.999	34.2
747.313	34.36
747.628	34.32
747.943	34.41
748.257	34.4
748.572	34.24
748.886	34.27
749.201	34.19
749.515	34.14
749.829	34.06
750.144	34.24
750.458	34.44
750.772	34.61
751.086	34.63
751.4	34.6
751.714	34.78
752.028	34.94
752.342	35.07
752.656	35.34
752.97	35.3
753.284	35.52
753.597	35.62
753.911	35.79
754.225	35.91
754.538	35.93
754.852	36.05
755.165	36.22
755.478	36.39
755.792	36.51
756.105	36.85
756.418	36.92
756.731	37.09
757.045	37.1
757.358	37.18
757.671	37.38
757.984	37.43
758.297	37.42
758.609	37.48
758.922	37.66
759.235	37.58
759.548	37.61
759.86	37.62
760.173	37.43
760.486	37.29
760.798	37.16
761.111	37.03
761.423	36.89
761.735	36.89
762.048	36.79
762.36	36.61
762.672	36.55
762.984	36.63
763.296	36.58
763.608	36.77
763.92	36.72
764.232	36.71
764.544	36.87
764.856	36.86
765.168	36.94
765.48	36.92
765.791	36.99
766.103	37.07
766.414	37.15
766.726	37.55
767.037	37.66
767.349	37.94
767.66	38.27
767.972	38.62
768.283	38.77
768.594	38.95
768.905	39.37
769.216	39.63
769.527	40.02
769.838	40.29
770.149	40.45
770.46	40.88
770.771	41.03
771.082	41.29
771.393	41.58
771.703	41.64
772.014	41.8
772.324	41.93
772.635	42.29
772.945	42.62
773.256	42.66
773.566	42.93
773.877	43.1
774.187	43.29
774.497	43.31
774.807	43.63
775.117	43.91
775.427	44.17
775.737	44.3
776.047	44.39
776.357	44.59
776.667	44.63
776.977	44.77
777.287	44.99
777.596	44.92
777.906	44.85
778.216	44.85
778.525	45.01
778.835	44.94
779.144	45.02
779.453	45.08
779.763	45.02
780.072	44.94
780.381	45.02
780.69	45.19
781	45.33
781.309	45.27
781.618	45.21
781.927	45.16
782.235	45.25
782.544	45.37
782.853	45.22
783.162	45.13
783.471	45.05
783.779	45.06
784.088	45.18
784.396	45.22
784.705	45.19
785.013	44.82
785.322	44.82
785.63	44.61
785.938	44.34
786.246	44.24
786.554	44.39
786.863	44.62
787.171	44.44
787.479	44.37
787.787	44.29
788.094	44.39
788.402	44.6
788.71	44.51
789.018	44.6
789.326	44.8
789.633	45.08
789.941	45.26
790.248	45.33
790.556	45.37
790.863	45.51
791.171	45.48
791.478	45.83
791.785	46.13
792.092	46.37
792.399	46.82
792.707	47.15
793.014	47.25
793.321	47.09
793.628	47.01
793.934	46.93
794.241	46.82
794.548	46.61
794.855	46.45
795.161	46.5
795.468	46.18
795.775	46.03
796.081	45.62
796.388	45.69
796.694	45.73
797	45.79
797.307	45.77
797.613	46.1
797.919	46.08
798.225	45.9
798.531	46.04
798.837	45.98
799.143	46.09
799.449	46.24
799.755	46.34
800.061	46.72
800.367	47.09
800.672	47.67
800.978	48.26
801.284	48.6
801.589	48.81
801.895	48.77
802.2	49.16
802.506	49.59
802.811	49.25
803.116	49.19
803.421	49.21
803.727	49.48
804.032	49.51
804.337	49.48
804.642	49.47
804.947	49.39
805.252	49.51
805.556	49.39
805.861	49.24
806.166	49.33
806.471	49.55
806.775	49.7
807.08	49.8
807.384	49.79
807.689	49.68
807.993	49.79
808.298	50.37
808.602	50.2
808.906	50.04
809.211	50.31
809.515	50.38
809.819	50.63
810.123	50.53
810.427	50.44
810.731	50.47
811.035	50.91
811.338	51.03
811.642	50.94
811.946	50.86
812.25	50.89
812.553	50.94
812.857	50.85
813.16	50.65
813.464	50.27
813.767	50.38
814.07	50.14
814.374	49.94
814.677	49.58
814.98	49.6
815.283	49.8
815.586	49.75
815.889	49.67
816.192	49.44
816.495	49.41
816.798	49.39
817.101	49.57
817.404	49.15
817.706	48.44
818.009	48.22
818.312	47.75
818.614	47.05
818.917	45.62
819.219	43.87
819.521	42.32
819.824	41.07
820.126	39.99
820.428	39.37
820.73	38.65
821.032	38.28
821.334	37.91
821.636	37.69
821.938	37.53
822.24	37.42
822.542	37.36
822.844	37.22
823.145	37.1
823.447	36.91
823.749	36.85
824.05	36.78
824.352	36.68
824.653	36.6
824.955	36.57
825.256	36.57
825.557	36.75
825.858	37
826.16	37.14
826.461	37.41
826.762	37.72
827.063	38.26
827.364	38.7
827.665	39.08
827.965	39.44
828.266	39.85
828.567	40.19
828.868	40.31
829.168	40.63
829.469	41
829.769	41.38
830.07	41.67
830.37	42.11
830.67	42.55
830.971	43.07
831.271	43.64
831.571	44.05
831.871	44.01
832.171	44.02
832.471	44.4
832.771	44.58
833.071	44.73
833.371	44.86
833.671	44.74
833.971	44.91
834.27	44.95
834.57	44.81
834.869	44.82
835.169	45.25
835.468	45.42
835.768	45.48
836.067	45.69
836.367	45.88
836.666	46.33
836.965	46.56
837.264	46.99
837.563	47.53
837.862	48.65
838.161	49.9
838.46	50.6
838.759	51.5
839.058	52.38
839.356	52.93
839.655	53.34
839.954	54
840.252	54.67
840.551	54.96
840.849	55.67
841.148	56.28
841.446	56.37
841.744	56.96
842.043	57.25
842.341	57.29
842.639	57.76
842.937	57.99
843.235	59.09
843.533	59.72
843.831	59.72
844.129	59.85
844.427	60.09
844.724	61.18
845.022	61.97
845.32	62.8
845.617	63.14
845.915	63.86
846.212	64.75
846.51	65.23
846.807	65.31
847.104	65.65
847.402	65.57
847.699	66.23
847.996	66.02
848.293	65.77
848.59	66.02
848.887	65.7
849.184	65.2
849.481	64.48
849.778	64.58
850.074	64.82
850.371	65.49
850.668	66.43
850.964	66.69
851.261	66.97
851.557	67.29
851.854	67.79
852.15	68.08
852.446	68.62
852.743	69.23
853.039	69.64
853.335	69.59
853.631	70.63
853.927	70.43
854.223	70.98
854.519	71.31
854.815	70.95
855.111	70.25
855.406	70.54
855.702	71.25
855.998	71.03
856.293	71.4
856.589	70.73
856.884	71.52
857.18	71.78
857.475	71.69
857.77	71.35
858.066	71.44
858.361	71.54
858.656	71.3
858.951	70.51
859.246	71.25
859.541	71.33
859.836	69.98
860.131	68.79
860.426	67.38
860.72	67.18
861.015	66.71
861.31	67.68
861.604	67.72
861.899	67.16
862.193	67.11
862.487	66.97
862.782	68.08
863.076	66.41
863.37	66.56
863.664	66.41
863.959	66.19
864.253	66.08
864.547	66.56
864.841	66.9
865.135	67.18
865.428	67.39
865.722	67.07
866.016	67.64
866.31	67.97
866.603	68.48
866.897	69.23
867.19	70.85
867.484	70.04
867.777	70.29
868.07	70.91
868.364	71.52
868.657	72.12
868.95	71.48
869.243	71.93
869.536	71.83
869.829	72.13
870.122	72.28
870.415	72.66
870.708	71.71
871	71.17
871.293	70.85
871.586	69.71
871.878	70.82
872.171	70.77
872.463	70.28
872.756	70.75
873.048	70.65
873.341	70.32
873.633	71.23
873.925	71.14
874.217	70.59
874.509	70.22
874.801	69.69
875.093	69.73
875.385	69.57
875.677	69.23
875.969	68.62
