Data from pcis_c_h1_p4_Reflection_4.txt Node
Date: Wed Jul 12 17:28:15 ART 2017
User: rodoncho
Spectrometer: USB2E3644
Trigger mode: 4
Integration Time (sec): 6.000000E-2
Scans to average: 10
Electric dark correction enabled: true
Nonlinearity correction enabled: false
Boxcar width: 10
XAxis mode: Wavelengths
Number of Pixels in Spectrum: 2048
>>>>>Begin Spectral Data<<<<<
178.315	-3.51
178.696	20.24
179.076	49.26
179.457	74.51
179.838	110.48
180.218	110.26
180.599	133.33
180.979	-94.74
181.36	57.04
181.74	-18.67
182.121	214.04
182.501	88.11
182.881	104.56
183.262	141.24
183.642	-84.06
184.022	91.32
184.402	108.55
184.783	95.73
185.163	104.84
185.543	114.02
185.923	138.36
186.303	143.48
186.683	142.38
187.063	144.36
187.443	146.76
187.823	151.12
188.203	153.8
188.583	154.14
188.963	156.73
189.343	147.18
189.723	141.61
190.102	140.38
190.482	134.78
190.862	137.74
191.242	142.09
191.621	145.21
192.001	147.13
192.38	144.64
192.76	140.78
193.14	134.38
193.519	130.71
193.898	125.78
194.278	120.94
194.657	121.85
195.037	125.96
195.416	124.67
195.795	122.03
196.175	119.8
196.554	121.32
196.933	118.72
197.312	118.15
197.692	118.32
198.071	118.38
198.45	118.83
198.829	119.18
199.208	117.74
199.587	119.62
199.966	120.76
200.345	118.84
200.724	119.45
201.103	121.17
201.482	122.69
201.86	124.59
202.239	125.56
202.618	123.39
202.997	119.63
203.375	120.74
203.754	123.37
204.133	123.55
204.511	119.61
204.89	120.17
205.269	120.18
205.647	120.8
206.026	120.61
206.404	119.84
206.782	120.05
207.161	119.99
207.539	116.52
207.918	113.98
208.296	113.74
208.674	114.4
209.052	115.03
209.431	114.17
209.809	113.25
210.187	113.57
210.565	113.89
210.943	114.12
211.321	113.21
211.699	113.07
212.077	113.7
212.455	116.03
212.833	115.54
213.211	116.63
213.589	117.74
213.967	118.13
214.345	119.85
214.722	119.14
215.1	118.94
215.478	120.2
215.855	121.72
216.233	122.99
216.611	122.73
216.988	121.08
217.366	121.74
217.743	121.59
218.121	121.73
218.498	120.63
218.876	120.27
219.253	120.63
219.631	120.16
220.008	118.26
220.385	117.8
220.762	118.03
221.14	117.88
221.517	117.3
221.894	116.95
222.271	117.09
222.648	117.61
223.025	117.12
223.402	116.48
223.78	115.88
224.157	115.97
224.533	116.06
224.91	116.61
225.287	116.57
225.664	117.96
226.041	118.62
226.418	119.95
226.795	120.38
227.171	120.74
227.548	120.4
227.925	121.85
228.301	121.71
228.678	121.66
229.055	120.98
229.431	121.13
229.808	121.53
230.184	119.28
230.561	118.53
230.937	119.59
231.313	120.26
231.69	120.38
232.066	120.76
232.442	120.99
232.819	121.43
233.195	121.83
233.571	121.68
233.947	120.76
234.323	119.68
234.699	119.67
235.075	119.87
235.451	120.39
235.827	121.37
236.203	122.45
236.579	124.26
236.955	125.13
237.331	126.36
237.707	129.03
238.083	132.78
238.459	137.77
238.834	145.4
239.21	152.25
239.586	156.96
239.961	158.99
240.337	160.97
240.713	164.75
241.088	169.06
241.464	171.96
241.839	177.93
242.215	186.49
242.59	203.2
242.965	237.97
243.341	306.76
243.716	409.71
244.091	629.85
244.467	969.99
244.842	2474.94
245.217	-25974.36
245.592	-4286.92
245.967	-2951.88
246.343	-3016.52
246.718	-11060.22
247.093	-67773.33
247.468	-37518.52
247.843	-4931.4
248.218	-1776.27
248.593	-1043.55
248.967	-762.62
249.342	-631.87
249.717	-603.04
250.092	-580.08
250.467	-659.85
250.841	-1021.39
251.216	-5986.67
251.591	1829.1
251.965	766.13
252.34	567.64
252.714	446.24
253.089	384.85
253.463	382.56
253.838	394.46
254.212	398.67
254.587	440.86
254.961	535.83
255.335	789.12
255.71	3654.48
256.084	-961.8
256.458	-395.73
256.832	-260.17
257.206	-213.59
257.581	-189.36
257.955	-176.97
258.329	-167.69
258.703	-156.89
259.077	-149.09
259.451	-143.38
259.825	-134.81
260.199	-127.26
260.572	-122.84
260.946	-114.99
261.32	-114
261.694	-110.2
262.068	-107.92
262.441	-104.87
262.815	-103.62
263.189	-104.94
263.562	-112.95
263.936	-129.7
264.309	-161
264.683	-195.58
265.056	-220.38
265.43	-236.97
265.803	-234.36
266.176	-223.02
266.55	-217.39
266.923	-210.74
267.296	-199.55
267.67	-188.6
268.043	-177.43
268.416	-161.48
268.789	-144.11
269.162	-126.77
269.535	-116.36
269.908	-108.76
270.281	-105.43
270.654	-104.51
271.027	-106.22
271.4	-107.98
271.773	-108.62
272.146	-107.26
272.519	-104.45
272.891	-102
273.264	-99.47
273.637	-99.02
274.01	-98.58
274.382	-96.98
274.755	-95.21
275.127	-94.8
275.5	-95.32
275.872	-94.21
276.245	-94.24
276.617	-97.61
276.99	-101.7
277.362	-105.76
277.734	-105.94
278.107	-104.55
278.479	-98.65
278.851	-92.11
279.223	-86.76
279.596	-84.91
279.968	-82.83
280.34	-82.12
280.712	-79.8
281.084	-75.85
281.456	-69.65
281.828	-64.74
282.2	-60.81
282.572	-57.01
282.944	-53.64
283.315	-51.94
283.687	-51.3
284.059	-50.64
284.431	-49.7
284.802	-49.38
285.174	-48.64
285.546	-48.03
285.917	-47.64
286.289	-46.96
286.66	-46.4
287.032	-46
287.403	-44.97
287.775	-44.55
288.146	-43.84
288.518	-43.52
288.889	-43.58
289.26	-45.25
289.632	-46.75
290.003	-48.12
290.374	-49.55
290.745	-50.28
291.116	-49.95
291.487	-48.23
291.858	-47.08
292.229	-46.28
292.6	-44
292.971	-41.46
293.342	-39.34
293.713	-37.21
294.084	-35.55
294.455	-34.87
294.826	-34.38
295.196	-34.64
295.567	-34.39
295.938	-34.2
296.308	-33.77
296.679	-32.84
297.05	-31.43
297.42	-30.42
297.791	-29.54
298.161	-28.55
298.532	-28.14
298.902	-27.98
299.272	-27.82
299.643	-27.2
300.013	-26.66
300.383	-26.41
300.754	-26.65
301.124	-26.87
301.494	-26.66
301.864	-26.98
302.234	-26.92
302.604	-27.11
302.974	-26.66
303.344	-26.43
303.714	-26.28
304.084	-25.92
304.454	-25.65
304.824	-24.91
305.194	-24.26
305.563	-23.5
305.933	-22.42
306.303	-20.79
306.673	-19.71
307.042	-18.95
307.412	-18.05
307.781	-17.02
308.151	-16.37
308.521	-15.54
308.89	-14.87
309.259	-14.56
309.629	-14.35
309.998	-14.11
310.368	-13.79
310.737	-13.34
311.106	-12.89
311.475	-12.42
311.845	-12.06
312.214	-11.23
312.583	-11.14
312.952	-10.48
313.321	-10.13
313.69	-10.48
314.059	-11.02
314.428	-11.06
314.797	-11.22
315.166	-11.87
315.535	-12.72
315.904	-13.11
316.272	-13.41
316.641	-13.68
317.01	-13.92
317.379	-13.91
317.747	-13.93
318.116	-13.19
318.484	-12.73
318.853	-12.32
319.221	-12.07
319.59	-12
319.958	-12.27
320.327	-11.92
320.695	-11.81
321.063	-11.49
321.432	-10.56
321.8	-9.79
322.168	-8.86
322.536	-7.82
322.905	-6.67
323.273	-5.74
323.641	-5.13
324.009	-4.89
324.377	-4.36
324.745	-3.85
325.113	-3.43
325.481	-2.78
325.849	-2.59
326.216	-2.26
326.584	-1.98
326.952	-1.58
327.32	-1.08
327.687	-0.47
328.055	-0.11
328.423	0.32
328.79	0.6
329.158	0.47
329.525	0.7
329.893	0.72
330.26	0.59
330.628	0.34
330.995	0.63
331.362	1.02
331.73	1.65
332.097	1.92
332.464	2.09
332.831	2.32
333.199	2.67
333.566	3.15
333.933	3.2
334.3	3.27
334.667	3.46
335.034	3.75
335.401	3.71
335.768	3.8
336.135	3.76
336.502	3.93
336.868	4.3
337.235	4.47
337.602	4.82
337.969	5.1
338.335	5.54
338.702	5.76
339.069	5.88
339.435	5.97
339.802	6.03
340.168	6.28
340.535	6.38
340.901	6.35
341.267	6.44
341.634	6.83
342	7.25
342.366	7.48
342.733	7.69
343.099	7.98
343.465	8.34
343.831	8.67
344.197	8.75
344.563	8.79
344.929	8.91
345.295	9.04
345.661	9.19
346.027	9.31
346.393	9.44
346.759	9.52
347.125	9.6
347.491	9.84
347.856	10.04
348.222	10.29
348.588	10.4
348.953	10.54
349.319	10.72
349.684	10.73
350.05	10.91
350.415	10.96
350.781	11.1
351.146	11.22
351.512	11.27
351.877	11.42
352.242	11.49
352.608	11.57
352.973	11.51
353.338	11.61
353.703	11.72
354.068	11.82
354.433	12.06
354.798	12.27
355.164	12.38
355.528	12.4
355.893	12.4
356.258	12.57
356.623	12.49
356.988	12.42
357.353	12.63
357.718	12.77
358.082	12.92
358.447	12.88
358.812	12.78
359.176	12.82
359.541	12.91
359.905	13.07
360.27	13.24
360.634	13.38
360.999	13.38
361.363	13.53
361.728	13.59
362.092	13.6
362.456	13.62
362.821	13.62
363.185	13.7
363.549	13.78
363.913	13.82
364.277	13.94
364.641	14.09
365.005	14.11
365.369	14.11
365.733	14.16
366.097	14.4
366.461	14.6
366.825	14.67
367.189	14.74
367.553	14.9
367.916	14.97
368.28	15.06
368.644	15.26
369.007	15.31
369.371	15.47
369.734	15.49
370.098	15.55
370.461	15.63
370.825	15.67
371.188	15.8
371.552	15.92
371.915	16.07
372.278	16.13
372.642	16.21
373.005	16.33
373.368	16.34
373.731	16.29
374.094	16.33
374.457	16.4
374.82	16.47
375.183	16.45
375.546	16.44
375.909	16.52
376.272	16.6
376.635	16.58
376.998	16.54
377.361	16.62
377.723	16.59
378.086	16.64
378.449	16.72
378.811	16.79
379.174	16.85
379.537	16.87
379.899	16.92
380.262	16.98
380.624	16.97
380.987	17.07
381.349	17.12
381.711	17.18
382.074	17.23
382.436	17.28
382.798	17.27
383.16	17.32
383.522	17.33
383.884	17.32
384.247	17.44
384.609	17.47
384.971	17.53
385.333	17.61
385.695	17.64
386.056	17.65
386.418	17.61
386.78	17.59
387.142	17.57
387.504	17.52
387.865	17.49
388.227	17.47
388.589	17.44
388.95	17.49
389.312	17.42
389.673	17.4
390.035	17.4
390.396	17.45
390.758	17.41
391.119	17.4
391.48	17.38
391.842	17.31
392.203	17.34
392.564	17.3
392.925	17.3
393.286	17.27
393.648	17.26
394.009	17.27
394.37	17.24
394.731	17.24
395.092	17.23
395.452	17.25
395.813	17.28
396.174	17.33
396.535	17.31
396.896	17.3
397.257	17.3
397.617	17.28
397.978	17.32
398.338	17.39
398.699	17.39
399.06	17.36
399.42	17.36
399.781	17.29
400.141	17.22
400.501	17.19
400.862	17.17
401.222	17.2
401.582	17.14
401.943	17.16
402.303	17.15
402.663	17.2
403.023	17.13
403.383	17.11
403.743	17.05
404.103	17.05
404.463	17.08
404.823	17.09
405.183	17.1
405.543	17.06
405.903	17.03
406.262	17.04
406.622	17.08
406.982	17.1
407.342	17.11
407.701	17.13
408.061	17.12
408.42	17.16
408.78	17.14
409.139	17.18
409.499	17.19
409.858	17.19
410.217	17.17
410.577	17.21
410.936	17.21
411.295	17.2
411.655	17.17
412.014	17.15
412.373	17.13
412.732	17.07
413.091	17.03
413.45	16.98
413.809	16.93
414.168	16.86
414.527	16.76
414.886	16.69
415.245	16.65
415.603	16.59
415.962	16.48
416.321	16.38
416.679	16.27
417.038	16.14
417.397	16.04
417.755	15.95
418.114	15.89
418.472	15.82
418.831	15.77
419.189	15.69
419.547	15.62
419.906	15.54
420.264	15.48
420.622	15.41
420.981	15.38
421.339	15.32
421.697	15.28
422.055	15.24
422.413	15.2
422.771	15.15
423.129	15.12
423.487	15.13
423.845	15.13
424.203	15.14
424.56	15.16
424.918	15.15
425.276	15.16
425.634	15.16
425.991	15.15
426.349	15.15
426.707	15.17
427.064	15.2
427.422	15.23
427.779	15.27
428.137	15.31
428.494	15.32
428.851	15.38
429.209	15.41
429.566	15.43
429.923	15.47
430.28	15.5
430.637	15.53
430.995	15.52
431.352	15.53
431.709	15.53
432.066	15.53
432.423	15.6
432.78	15.63
433.137	15.64
433.493	15.68
433.85	15.69
434.207	15.71
434.564	15.71
434.92	15.71
435.277	15.7
435.634	15.7
435.99	15.71
436.347	15.69
436.703	15.69
437.06	15.71
437.416	15.72
437.773	15.74
438.129	15.74
438.485	15.75
438.841	15.76
439.198	15.76
439.554	15.77
439.91	15.74
440.266	15.73
440.622	15.73
440.978	15.7
441.334	15.67
441.69	15.64
442.046	15.59
442.402	15.54
442.758	15.48
443.113	15.44
443.469	15.4
443.825	15.36
444.181	15.33
444.536	15.31
444.892	15.27
445.247	15.23
445.603	15.21
445.958	15.18
446.314	15.14
446.669	15.13
447.025	15.09
447.38	15.06
447.735	15.03
448.09	15
448.446	14.98
448.801	14.95
449.156	14.93
449.511	14.92
449.866	14.93
450.221	14.96
450.576	14.97
450.931	14.95
451.286	14.94
451.641	14.96
451.995	14.96
452.35	14.97
452.705	14.98
453.06	14.97
453.414	14.99
453.769	15.02
454.123	15.01
454.478	15.01
454.832	15.02
455.187	15
455.541	14.99
455.896	14.97
456.25	14.96
456.604	14.97
456.958	14.97
457.313	14.98
457.667	15.01
458.021	15.04
458.375	15.07
458.729	15.13
459.083	15.16
459.437	15.2
459.791	15.23
460.145	15.26
460.499	15.32
460.852	15.36
461.206	15.4
461.56	15.47
461.914	15.55
462.267	15.59
462.621	15.68
462.974	15.8
463.328	15.91
463.681	16.03
464.035	16.17
464.388	16.3
464.742	16.41
465.095	16.53
465.448	16.62
465.801	16.71
466.155	16.79
466.508	16.87
466.861	16.96
467.214	17.03
467.567	17.12
467.92	17.18
468.273	17.23
468.626	17.28
468.979	17.31
469.332	17.34
469.684	17.41
470.037	17.44
470.39	17.47
470.743	17.53
471.095	17.58
471.448	17.61
471.8	17.64
472.153	17.67
472.505	17.68
472.858	17.67
473.21	17.66
473.562	17.62
473.915	17.56
474.267	17.51
474.619	17.47
474.971	17.41
475.324	17.35
475.676	17.29
476.028	17.22
476.38	17.17
476.732	17.08
477.084	16.99
477.436	16.93
477.787	16.83
478.139	16.74
478.491	16.62
478.843	16.51
479.195	16.39
479.546	16.21
479.898	16.01
480.249	15.85
480.601	15.72
480.952	15.63
481.304	15.56
481.655	15.51
482.007	15.46
482.358	15.4
482.709	15.37
483.061	15.34
483.412	15.31
483.763	15.28
484.114	15.27
484.465	15.25
484.816	15.23
485.167	15.23
485.518	15.22
485.869	15.23
486.22	15.24
486.571	15.26
486.922	15.3
487.272	15.33
487.623	15.4
487.974	15.48
488.324	15.54
488.675	15.61
489.025	15.67
489.376	15.75
489.726	15.84
490.077	15.93
490.427	16.01
490.778	16.11
491.128	16.23
491.478	16.36
491.828	16.51
492.179	16.66
492.529	16.8
492.879	16.95
493.229	17.1
493.579	17.23
493.929	17.38
494.279	17.52
494.629	17.7
494.979	17.89
495.328	18.12
495.678	18.41
496.028	18.68
496.378	18.93
496.727	19.18
497.077	19.39
497.426	19.6
497.776	19.8
498.125	19.99
498.475	20.19
498.824	20.35
499.174	20.55
499.523	20.77
499.872	20.96
500.221	21.19
500.571	21.42
500.92	21.66
501.269	21.87
501.618	22.09
501.967	22.29
502.316	22.51
502.665	22.73
503.014	22.91
503.363	23.12
503.711	23.29
504.06	23.45
504.409	23.62
504.758	23.76
505.106	23.91
505.455	24.05
505.803	24.19
506.152	24.34
506.5	24.46
506.849	24.56
507.197	24.68
507.546	24.81
507.894	24.92
508.242	25.04
508.59	25.15
508.939	25.25
509.287	25.34
509.635	25.41
509.983	25.49
510.331	25.57
510.679	25.64
511.027	25.71
511.375	25.8
511.723	25.89
512.07	25.97
512.418	26.05
512.766	26.11
513.114	26.17
513.461	26.23
513.809	26.29
514.156	26.34
514.504	26.4
514.851	26.42
515.199	26.43
515.546	26.44
515.893	26.47
516.241	26.52
516.588	26.56
516.935	26.6
517.282	26.61
517.63	26.63
517.977	26.65
518.324	26.67
518.671	26.68
519.018	26.69
519.365	26.69
519.711	26.71
520.058	26.72
520.405	26.73
520.752	26.75
521.099	26.74
521.445	26.75
521.792	26.77
522.138	26.77
522.485	26.8
522.832	26.83
523.178	26.85
523.524	26.84
523.871	26.84
524.217	26.83
524.563	26.81
524.91	26.78
525.256	26.76
525.602	26.75
525.948	26.74
526.294	26.73
526.64	26.73
526.986	26.75
527.332	26.78
527.678	26.8
528.024	26.8
528.37	26.83
528.716	26.81
529.061	26.81
529.407	26.81
529.753	26.79
530.098	26.77
530.444	26.77
530.789	26.76
531.135	26.76
531.48	26.77
531.826	26.8
532.171	26.82
532.516	26.82
532.862	26.84
533.207	26.84
533.552	26.84
533.897	26.84
534.242	26.84
534.587	26.83
534.932	26.81
535.277	26.79
535.622	26.77
535.967	26.79
536.312	26.79
536.657	26.79
537.001	26.82
537.346	26.81
537.691	26.79
538.035	26.74
538.38	26.72
538.724	26.69
539.069	26.65
539.413	26.65
539.758	26.65
540.102	26.64
540.446	26.64
540.791	26.65
541.135	26.65
541.479	26.62
541.823	26.6
542.167	26.6
542.512	26.6
542.856	26.58
543.2	26.56
543.543	26.55
543.887	26.54
544.231	26.54
544.575	26.54
544.919	26.55
545.262	26.58
545.606	26.6
545.95	26.61
546.293	26.61
546.637	26.59
546.98	26.59
547.324	26.57
547.667	26.56
548.011	26.51
548.354	26.49
548.697	26.48
549.04	26.46
549.384	26.45
549.727	26.42
550.07	26.43
550.413	26.45
550.756	26.46
551.099	26.48
551.442	26.48
551.785	26.5
552.128	26.49
552.47	26.49
552.813	26.47
553.156	26.45
553.499	26.43
553.841	26.41
554.184	26.39
554.526	26.39
554.869	26.4
555.211	26.38
555.554	26.37
555.896	26.36
556.238	26.35
556.581	26.35
556.923	26.34
557.265	26.31
557.607	26.24
557.949	26.2
558.291	26.19
558.633	26.14
558.975	26.09
559.317	26.05
559.659	26
560.001	25.94
560.343	25.93
560.685	25.92
561.026	25.89
561.368	25.85
561.71	25.79
562.051	25.72
562.393	25.73
562.734	25.68
563.076	25.64
563.417	25.62
563.759	25.59
564.1	25.57
564.441	25.55
564.782	25.53
565.124	25.51
565.465	25.47
565.806	25.48
566.147	25.45
566.488	25.44
566.829	25.42
567.17	25.42
567.511	25.37
567.851	25.34
568.192	25.33
568.533	25.32
568.874	25.32
569.214	25.34
569.555	25.3
569.895	25.3
570.236	25.27
570.576	25.22
570.917	25.19
571.257	25.14
571.598	25.11
571.938	25.07
572.278	25.02
572.618	24.99
572.959	24.93
573.299	24.92
573.639	24.87
573.979	24.85
574.319	24.8
574.659	24.78
574.999	24.77
575.339	24.69
575.678	24.65
576.018	24.61
576.358	24.57
576.698	24.53
577.037	24.5
577.377	24.48
577.716	24.45
578.056	24.39
578.395	24.36
578.735	24.33
579.074	24.31
579.413	24.29
579.753	24.26
580.092	24.24
580.431	24.25
580.77	24.22
581.109	24.19
581.448	24.15
581.787	24.13
582.126	24.09
582.465	24.11
582.804	24.11
583.143	24.07
583.482	24.02
583.82	23.97
584.159	23.94
584.498	23.88
584.836	23.87
585.175	23.88
585.514	23.88
585.852	23.89
586.19	23.88
586.529	23.83
586.867	23.82
587.205	23.82
587.544	23.78
587.882	23.8
588.22	23.79
588.558	23.78
588.896	23.77
589.234	23.75
589.572	23.73
589.91	23.69
590.248	23.68
590.586	23.69
590.924	23.73
591.262	23.71
591.599	23.71
591.937	23.71
592.275	23.66
592.612	23.66
592.95	23.62
593.287	23.61
593.625	23.67
593.962	23.67
594.299	23.68
594.637	23.66
594.974	23.63
595.311	23.61
595.648	23.61
595.985	23.6
596.322	23.59
596.659	23.61
596.996	23.59
597.333	23.57
597.67	23.56
598.007	23.52
598.344	23.54
598.681	23.53
599.017	23.53
599.354	23.52
599.691	23.48
600.027	23.49
600.364	23.49
600.7	23.48
601.037	23.49
601.373	23.45
601.71	23.47
602.046	23.47
602.382	23.49
602.718	23.51
603.054	23.49
603.391	23.49
603.727	23.5
604.063	23.51
604.399	23.48
604.735	23.47
605.071	23.47
605.406	23.45
605.742	23.42
606.078	23.43
606.414	23.44
606.749	23.43
607.085	23.43
607.421	23.42
607.756	23.37
608.092	23.32
608.427	23.29
608.762	23.26
609.098	23.2
609.433	23.15
609.768	23.11
610.104	23.09
610.439	23.07
610.774	23
611.109	22.98
611.444	23.01
611.779	23.02
612.114	22.98
612.449	22.94
612.784	22.91
613.118	22.84
613.453	22.82
613.788	22.81
614.123	22.71
614.457	22.66
614.792	22.63
615.126	22.6
615.461	22.56
615.795	22.49
616.13	22.49
616.464	22.51
616.798	22.47
617.132	22.48
617.467	22.45
617.801	22.44
618.135	22.42
618.469	22.4
618.803	22.33
619.137	22.31
619.471	22.32
619.805	22.34
620.139	22.34
620.472	22.31
620.806	22.27
621.14	22.24
621.473	22.26
621.807	22.21
622.141	22.2
622.474	22.18
622.808	22.17
623.141	22.18
623.474	22.19
623.808	22.22
624.141	22.22
624.474	22.25
624.807	22.28
625.141	22.3
625.474	22.28
625.807	22.3
626.14	22.35
626.473	22.32
626.806	22.35
627.138	22.35
627.471	22.35
627.804	22.35
628.137	22.36
628.469	22.29
628.802	22.32
629.135	22.31
629.467	22.33
629.8	22.32
630.132	22.29
630.465	22.26
630.797	22.25
631.129	22.26
631.461	22.23
631.794	22.2
632.126	22.16
632.458	22.19
632.79	22.15
633.122	22.11
633.454	22.13
633.786	22.05
634.118	22
634.45	22
634.781	22.01
635.113	22
635.445	22
635.777	21.98
636.108	21.96
636.44	21.98
636.771	21.94
637.103	21.94
637.434	21.88
637.765	21.84
638.097	21.81
638.428	21.8
638.759	21.73
639.09	21.69
639.422	21.62
639.753	21.56
640.084	21.51
640.415	21.53
640.746	21.56
641.077	21.6
641.407	21.52
641.738	21.52
642.069	21.56
642.4	21.57
642.73	21.55
643.061	21.53
643.392	21.49
643.722	21.56
644.053	21.52
644.383	21.59
644.713	21.54
645.044	21.5
645.374	21.49
645.704	21.49
646.034	21.53
646.365	21.52
646.695	21.57
647.025	21.61
647.355	21.58
647.685	21.5
648.015	21.55
648.344	21.6
648.674	21.57
649.004	21.55
649.334	21.6
649.663	21.67
649.993	21.72
650.323	21.71
650.652	21.67
650.982	21.7
651.311	21.64
651.64	21.69
651.97	21.61
652.299	21.63
652.628	21.65
652.958	21.65
653.287	21.69
653.616	21.68
653.945	21.69
654.274	21.65
654.603	21.7
654.932	21.64
655.261	21.66
655.589	21.7
655.918	21.74
656.247	21.76
656.576	21.78
656.904	21.81
657.233	21.91
657.561	21.93
657.89	21.98
658.218	21.96
658.547	21.98
658.875	22.06
659.203	22.01
659.532	22.03
659.86	22
660.188	22.01
660.516	22.02
660.844	21.97
661.172	22.01
661.5	22.01
661.828	22
662.156	21.93
662.484	21.92
662.811	21.89
663.139	21.83
663.467	21.76
663.794	21.68
664.122	21.57
664.45	21.5
664.777	21.45
665.104	21.51
665.432	21.42
665.759	21.36
666.086	21.44
666.414	21.47
666.741	21.49
667.068	21.47
667.395	21.42
667.722	21.44
668.049	21.41
668.376	21.36
668.703	21.35
669.03	21.36
669.357	21.37
669.683	21.31
670.01	21.27
670.337	21.26
670.663	21.28
670.99	21.21
671.317	21.21
671.643	21.23
671.969	21.22
672.296	21.24
672.622	21.25
672.948	21.22
673.275	21.09
673.601	21.08
673.927	20.97
674.253	21.06
674.579	21.08
674.905	21.08
675.231	21.13
675.557	21.16
675.883	21.14
676.209	21.13
676.534	21.15
676.86	21.19
677.186	21.24
677.511	21.3
677.837	21.36
678.162	21.43
678.488	21.42
678.813	21.43
679.139	21.46
679.464	21.51
679.789	21.51
680.114	21.59
680.44	21.55
680.765	21.64
681.09	21.65
681.415	21.61
681.74	21.62
682.065	21.65
682.39	21.63
682.714	21.62
683.039	21.57
683.364	21.64
683.689	21.59
684.013	21.56
684.338	21.52
684.662	21.52
684.987	21.4
685.311	21.32
685.636	21.31
685.96	21.27
686.284	21.22
686.608	21.16
686.933	21.07
687.257	21.08
687.581	21.06
687.905	20.97
688.229	21
688.553	20.99
688.877	20.9
689.201	20.91
689.524	20.92
689.848	20.98
690.172	20.89
690.496	20.88
690.819	20.88
691.143	20.85
691.466	20.78
691.79	20.81
692.113	20.75
692.436	20.7
692.76	20.73
693.083	20.69
693.406	20.72
693.729	20.71
694.053	20.7
694.376	20.74
694.699	20.8
695.022	20.91
695.344	21.02
695.667	21.21
695.99	21.32
696.313	21.44
696.636	21.48
696.958	21.53
697.281	21.59
697.604	21.64
697.926	21.66
698.249	21.74
698.571	21.78
698.893	21.84
699.216	21.84
699.538	21.77
699.86	21.78
700.182	21.75
700.504	21.78
700.827	21.79
701.149	21.72
701.471	21.7
701.793	21.57
702.114	21.46
702.436	21.24
702.758	21.1
703.08	20.96
703.401	20.75
703.723	20.65
704.045	20.53
704.366	20.43
704.688	20.43
705.009	20.31
705.331	20.33
705.652	20.33
705.973	20.37
706.294	20.43
706.616	20.47
706.937	20.48
707.258	20.54
707.579	20.6
707.9	20.63
708.221	20.67
708.542	20.75
708.863	20.77
709.183	20.82
709.504	20.81
709.825	20.79
710.145	20.86
710.466	20.83
710.787	20.81
711.107	20.75
711.427	20.66
711.748	20.64
712.068	20.62
712.388	20.61
712.709	20.64
713.029	20.69
713.349	20.62
713.669	20.69
713.989	20.73
714.309	20.74
714.629	20.78
714.949	20.74
715.269	20.67
715.589	20.67
715.908	20.68
716.228	20.65
716.548	20.73
716.867	20.85
717.187	20.9
717.506	21.03
717.826	21.12
718.145	21.19
718.465	21.32
718.784	21.42
719.103	21.46
719.422	21.5
719.741	21.5
720.061	21.63
720.38	21.65
720.699	21.67
721.018	21.64
721.336	21.65
721.655	21.7
721.974	21.74
722.293	21.79
722.612	21.87
722.93	21.92
723.249	21.95
723.567	21.98
723.886	22.19
724.204	22.26
724.523	22.33
724.841	22.47
725.159	22.58
725.477	22.51
725.796	22.73
726.114	22.92
726.432	23.08
726.75	23.19
727.068	23.26
727.386	23.4
727.704	23.58
728.022	23.61
728.339	23.73
728.657	23.91
728.975	23.98
729.292	24.1
729.61	24.2
729.928	24.29
730.245	24.31
730.562	24.34
730.88	24.43
731.197	24.54
731.514	24.59
731.832	24.68
732.149	24.82
732.466	24.78
732.783	24.74
733.1	24.79
733.417	24.91
733.734	25
734.051	24.97
734.368	25.07
734.684	25.25
735.001	25.26
735.318	25.36
735.634	25.46
735.951	25.5
736.268	25.76
736.584	25.9
736.9	26.08
737.217	26.25
737.533	26.33
737.849	26.38
738.166	26.51
738.482	26.57
738.798	26.76
739.114	27.03
739.43	27.24
739.746	27.45
740.062	27.51
740.378	27.63
740.693	27.83
741.009	27.85
741.325	28.15
741.641	28.39
741.956	28.47
742.272	28.62
742.587	28.77
742.903	28.85
743.218	29.04
743.533	29.2
743.849	29.13
744.164	29.31
744.479	29.41
744.794	29.49
745.109	29.54
745.424	29.52
745.739	29.43
746.054	29.4
746.369	29.4
746.684	29.52
746.999	29.56
747.313	29.57
747.628	29.73
747.943	29.63
748.257	29.64
748.572	29.82
748.886	29.96
749.201	30.08
749.515	29.97
749.829	30.05
750.144	30.06
750.458	30.19
750.772	30.16
751.086	30.23
751.4	30.23
751.714	30.37
752.028	30.5
752.342	30.71
752.656	30.76
752.97	30.85
753.284	30.92
753.597	31.06
753.911	31.25
754.225	31.28
754.538	31.48
754.852	31.57
755.165	31.47
755.478	31.46
755.792	31.51
756.105	31.8
756.418	31.76
756.731	31.68
757.045	31.71
757.358	31.79
757.671	31.91
757.984	31.97
758.297	32.03
758.609	32.01
758.922	32.04
759.235	32.19
759.548	32.13
759.86	31.98
760.173	31.77
760.486	31.53
760.798	31.45
761.111	31.19
761.423	31.07
761.735	31.08
762.048	31.11
762.36	31.09
762.672	31.05
762.984	31.05
763.296	31.25
763.608	31.4
763.92	31.51
764.232	31.57
764.544	31.68
764.856	31.77
765.168	31.83
765.48	31.85
765.791	31.91
766.103	32.01
766.414	32.3
766.726	32.58
767.037	32.82
767.349	33
767.66	33.53
767.972	33.94
768.283	34.33
768.594	34.58
768.905	34.82
769.216	34.96
769.527	35.33
769.838	35.61
770.149	35.9
770.46	36.13
770.771	36.28
771.082	36.4
771.393	36.53
771.703	36.79
772.014	37.01
772.324	37.08
772.635	37.34
772.945	37.28
773.256	37.4
773.566	37.73
773.877	38.02
774.187	38.07
774.497	38.25
774.807	38.45
775.117	38.62
775.427	38.77
775.737	38.8
776.047	38.53
776.357	38.29
776.667	38.18
776.977	38.35
777.287	38.47
777.596	38.37
777.906	38.41
778.216	38.48
778.525	38.3
778.835	38.41
779.144	38.73
779.453	38.95
779.763	39.17
780.072	39.38
780.381	39.38
780.69	39.37
781	39.26
781.309	39.12
781.618	39.28
781.927	39.52
782.235	39.88
782.544	40.28
782.853	40.28
783.162	40.43
783.471	40.4
783.779	40.56
784.088	40.84
784.396	40.92
784.705	40.79
785.013	41.15
785.322	41.13
785.63	40.78
785.938	40.62
786.246	40.51
786.554	40.29
786.863	40.52
787.171	40.18
787.479	40.47
787.787	40.51
788.094	40.36
788.402	40.15
788.71	39.9
789.018	39.8
789.326	39.99
789.633	40.27
789.941	40.15
790.248	40.15
790.556	40.17
790.863	40.09
791.171	40.32
791.478	40.38
791.785	40.65
792.092	40.82
792.399	40.98
792.707	41.11
793.014	41.42
793.321	40.88
793.628	41.09
793.934	41.03
794.241	41.06
794.548	40.96
794.855	40.97
795.161	41.3
795.468	41.21
795.775	41.35
796.081	41.13
796.388	41.34
796.694	41.35
797	41.54
797.307	41.69
797.613	41.77
797.919	41.55
798.225	41.52
798.531	41.6
798.837	41.72
799.143	41.89
799.449	41.71
799.755	42.05
800.061	42.34
800.367	42.35
800.672	42.47
800.978	42.87
801.284	43.35
801.589	43.55
801.895	43.98
802.2	44.09
802.506	44.25
802.811	44.07
803.116	44.12
803.421	44.36
803.727	44.52
804.032	44.47
804.337	44.76
804.642	44.83
804.947	44.85
805.252	45.2
805.556	45.05
805.861	45.31
806.166	45.59
806.471	45.55
806.775	45.83
807.08	46.08
807.384	46.15
807.689	45.85
807.993	45.45
808.298	45.26
808.602	45.3
808.906	45.42
809.211	45.89
809.515	45.95
809.819	45.88
810.123	46.06
810.427	46.51
810.731	46.56
811.035	46.66
811.338	46.74
811.642	47.04
811.946	47.31
812.25	47.79
812.553	47.87
812.857	47.82
813.16	47.49
813.464	47.24
813.767	47.26
814.07	47.58
814.374	47.77
814.677	47.85
814.98	47.9
815.283	47.81
815.586	47.53
815.889	47.47
816.192	47.37
816.495	47.11
816.798	46.61
817.101	46.29
817.404	45.86
817.706	45.65
818.009	44.65
818.312	43.89
818.614	42.47
818.917	41.1
819.219	39.4
819.521	37.93
819.824	36.31
820.126	35.11
820.428	34.31
820.73	33.77
821.032	33.36
821.334	33.04
821.636	32.8
821.938	32.68
822.24	32.59
822.542	32.48
822.844	32.43
823.145	32.36
823.447	32.27
823.749	32.19
824.05	32.05
824.352	31.98
824.653	31.92
824.955	31.86
825.256	31.91
825.557	32.08
825.858	32.32
826.16	32.75
826.461	33.15
826.762	33.53
827.063	33.96
827.364	34.45
827.665	34.84
827.965	35.32
828.266	35.61
828.567	35.81
828.868	36.1
829.168	36.38
829.469	36.73
829.769	37.05
830.07	37.34
830.37	37.76
830.67	38.15
830.971	38.44
831.271	39.13
831.571	39.51
831.871	39.64
832.171	39.71
832.471	39.42
832.771	39.54
833.071	39.68
833.371	39.96
833.671	40.09
833.971	40.3
834.27	40.27
834.57	40.51
834.869	40.74
835.169	40.81
835.468	40.79
835.768	40.78
836.067	41.03
836.367	41.19
836.666	41.63
836.965	42.17
837.264	42.89
837.563	43.55
837.862	44.51
838.161	45.64
838.46	46.13
838.759	47.18
839.058	47.81
839.356	48.4
839.655	48.8
839.954	49.08
840.252	49.59
840.551	49.92
840.849	49.77
841.148	49.9
841.446	50.07
841.744	50.4
842.043	50.58
842.341	50.73
842.639	50.57
842.937	50.18
843.235	50.24
843.533	50.74
843.831	50.74
844.129	50.96
844.427	51.19
844.724	52.3
845.022	53.28
845.32	53.99
845.617	55.03
845.915	55.58
846.212	56.55
846.51	57.67
846.807	58.02
847.104	58.31
847.402	58.83
847.699	59.82
847.996	60.22
848.293	60.12
848.59	59.96
848.887	60.75
849.184	61.32
849.481	61.83
849.778	62.13
850.074	62.83
850.371	62.89
850.668	63.37
850.964	62.91
851.261	63.4
851.557	64.36
851.854	64.91
852.15	64.94
852.446	64.41
852.743	64.78
853.039	65.48
853.335	66.92
853.631	67.41
853.927	67.28
854.223	67.48
854.519	67.75
854.815	68.52
855.111	68.14
855.406	68.15
855.702	67.9
855.998	67.56
856.293	67.61
856.589	67.74
856.884	67.91
857.18	68.49
857.475	68.64
857.77	68.01
858.066	66.85
858.361	68
858.656	68.57
858.951	68.14
859.246	67.35
859.541	67.09
859.836	66.45
860.131	66.3
860.426	66.32
860.72	66.26
861.015	65.57
861.31	65.67
861.604	65.6
861.899	65.85
862.193	66.01
862.487	65.51
862.782	65.1
863.076	64.76
863.37	65.06
863.664	65.1
863.959	66.02
864.253	66.89
864.547	65.83
864.841	65.04
865.135	63.88
865.428	64.12
865.722	63.35
866.016	63.87
866.31	63.5
866.603	63.29
866.897	64.56
867.19	65.76
867.484	66.11
867.777	66.42
868.07	66.81
868.364	67.56
868.657	67.62
868.95	69.26
869.243	70.06
869.536	70.82
869.829	70.55
870.122	69.83
870.415	69.29
870.708	68.62
871	67.9
871.293	68.12
871.586	68.94
871.878	69.09
872.171	69.09
872.463	69.03
872.756	68.92
873.048	67.71
873.341	66.93
873.633	67.54
873.925	67.52
874.217	66.68
874.509	65.95
874.801	65.97
875.093	64.16
875.385	63.04
875.677	61.19
875.969	60.88
