Data from pcis_c_m1_p4_Reflection_3.txt Node
Date: Wed Jul 12 17:17:29 ART 2017
User: rodoncho
Spectrometer: USB2E3644
Trigger mode: 4
Integration Time (sec): 6.000000E-2
Scans to average: 10
Electric dark correction enabled: true
Nonlinearity correction enabled: false
Boxcar width: 10
XAxis mode: Wavelengths
Number of Pixels in Spectrum: 2048
>>>>>Begin Spectral Data<<<<<
178.315	-736.36
178.696	313.64
179.076	306.59
179.457	1905.88
179.838	535.71
180.218	-175.61
180.599	25.47
180.979	-87.5
181.36	38.03
181.74	18.56
182.121	21.82
182.501	100.55
182.881	128.4
183.262	138.86
183.642	90.29
184.022	-196.88
184.402	14.4
184.783	54.19
185.163	70.26
185.543	87.42
185.923	114.24
186.303	124.26
186.683	127.72
187.063	138.46
187.443	157.86
187.823	149.42
188.203	143.94
188.583	144.3
188.963	144.6
189.343	133.37
189.723	128.21
190.102	130.51
190.482	135.16
190.862	136.94
191.242	140.68
191.621	139.74
192.001	146.98
192.38	150.13
192.76	153.49
193.14	155.47
193.519	150
193.898	143.22
194.278	133.92
194.657	129.55
195.037	124.86
195.416	120.6
195.795	119.33
196.175	118.85
196.554	115.75
196.933	112.82
197.312	113.98
197.692	114.83
198.071	114.88
198.45	114.31
198.829	114.43
199.208	113.56
199.587	112.05
199.966	112.04
200.345	111.45
200.724	109.44
201.103	108.43
201.482	109.16
201.86	109.05
202.239	109.96
202.618	109.95
202.997	110.83
203.375	110.75
203.754	109.87
204.133	109.5
204.511	110.25
204.89	109.81
205.269	108.89
205.647	109.23
206.026	109.2
206.404	109.86
206.782	109.18
207.161	107.83
207.539	106.26
207.918	104.65
208.296	103.56
208.674	103.95
209.052	104.43
209.431	103.77
209.809	104.87
210.187	104.96
210.565	105.3
210.943	105.39
211.321	105.6
211.699	105.67
212.077	105.16
212.455	105.52
212.833	105.7
213.211	106.62
213.589	105.83
213.967	105.17
214.345	105
214.722	105.33
215.1	104.97
215.478	105.13
215.855	105.75
216.233	107.33
216.611	107.9
216.988	107.51
217.366	107.67
217.743	107.53
218.121	108.76
218.498	108.97
218.876	109.58
219.253	111.82
219.631	111.99
220.008	113.21
220.385	113.44
220.762	113.37
221.14	112.03
221.517	112.64
221.894	112.05
222.271	112.15
222.648	113.03
223.025	113.73
223.402	115.1
223.78	116.93
224.157	117.99
224.533	117.81
224.91	116.53
225.287	117.17
225.664	116.59
226.041	115.96
226.418	116.15
226.795	116.27
227.171	114.35
227.548	115.18
227.925	115.25
228.301	115.96
228.678	116.72
229.055	116.51
229.431	115.91
229.808	116.04
230.184	115.77
230.561	114.81
230.937	116.14
231.313	117.22
231.69	117.1
232.066	117.67
232.442	118.13
232.819	119.08
233.195	118.28
233.571	118.35
233.947	117.44
234.323	116.19
234.699	116.33
235.075	116.98
235.451	117.51
235.827	117.83
236.203	117.63
236.579	118.67
236.955	120.9
237.331	122.7
237.707	126.86
238.083	129.94
238.459	133.98
238.834	137.16
239.21	141.59
239.586	145.49
239.961	147.91
240.337	151.67
240.713	155.84
241.088	159.09
241.464	162.72
241.839	169.46
242.215	179.34
242.59	190.37
242.965	215.17
243.341	257.99
243.716	335.84
244.091	476.11
244.467	739.3
244.842	1241.97
245.217	2591.21
245.592	4018.97
245.967	8292.86
246.343	14540.63
246.718	6368.92
247.093	4790.82
247.468	6283.78
247.843	6847.06
248.218	-13800
248.593	-2785.21
248.967	-1197.7
249.342	-984
249.717	-1025.22
250.092	-1001.06
250.467	-1217.78
250.841	-3072.08
251.216	2178.73
251.591	808.35
251.965	529.47
252.34	406.54
252.714	366.94
253.089	345.39
253.463	344.91
253.838	348.16
254.212	355.38
254.587	383.9
254.961	445.97
255.335	606.92
255.71	1588.85
256.084	-1522.36
256.458	-491.24
256.832	-306.78
257.206	-244.75
257.581	-214.97
257.955	-200.69
258.329	-185.79
258.703	-169.89
259.077	-155.43
259.451	-147.34
259.825	-138.55
260.199	-132.24
260.572	-129.98
260.946	-125.72
261.32	-122.19
261.694	-118.35
262.068	-116.26
262.441	-114.19
262.815	-111.68
263.189	-111.16
263.562	-115.8
263.936	-133.11
264.309	-157.58
264.683	-188.35
265.056	-202.94
265.43	-207.07
265.803	-202.23
266.176	-195.68
266.55	-194.88
266.923	-191.67
267.296	-185.14
267.67	-177.81
268.043	-162.2
268.416	-145.14
268.789	-131.45
269.162	-118.88
269.535	-109.94
269.908	-104.28
270.281	-99.45
270.654	-99.39
271.027	-101.09
271.4	-103.45
271.773	-103.87
272.146	-102.78
272.519	-99.26
272.891	-96.43
273.264	-95.8
273.637	-95.69
274.01	-96.64
274.382	-94.68
274.755	-93.4
275.127	-92.59
275.5	-92.62
275.872	-93.64
276.245	-95.37
276.617	-97.77
276.99	-102.61
277.362	-107.3
277.734	-108.4
278.107	-108.25
278.479	-102.61
278.851	-97.65
279.223	-92.57
279.596	-89.5
279.968	-88.43
280.34	-88.84
280.712	-87.5
281.084	-82.49
281.456	-76.29
281.828	-70.18
282.2	-65.39
282.572	-60.46
282.944	-56.91
283.315	-55.94
283.687	-54.97
284.059	-54.15
284.431	-53.01
284.802	-51.77
285.174	-49.86
285.546	-48.68
285.917	-48.38
286.289	-47.74
286.66	-46.81
287.032	-47.04
287.403	-46.58
287.775	-46.11
288.146	-45.38
288.518	-44.78
288.889	-44.56
289.26	-45.4
289.632	-46.16
290.003	-47.36
290.374	-49.33
290.745	-50.42
291.116	-49.18
291.487	-47.74
291.858	-45.7
292.229	-44.08
292.6	-42.34
292.971	-41.45
293.342	-39.09
293.713	-36.28
294.084	-34.5
294.455	-33.32
294.826	-32.12
295.196	-31.62
295.567	-31.01
295.938	-30.55
296.308	-30.63
296.679	-30.24
297.05	-29.31
297.42	-28.74
297.791	-27.68
298.161	-26.54
298.532	-25.81
298.902	-25.54
299.272	-25.29
299.643	-24.91
300.013	-24.66
300.383	-24.4
300.754	-23.9
301.124	-24.33
301.494	-24.52
301.864	-24.66
302.234	-25.1
302.604	-25.25
302.974	-25.2
303.344	-25.24
303.714	-25.12
304.084	-24.25
304.454	-23.68
304.824	-23.1
305.194	-22.48
305.563	-22
305.933	-21.09
306.303	-19.64
306.673	-18.68
307.042	-18.07
307.412	-17.54
307.781	-16.54
308.151	-15.72
308.521	-14.96
308.89	-14.42
309.259	-13.96
309.629	-13.73
309.998	-13.55
310.368	-13.43
310.737	-13.04
311.106	-12.46
311.475	-11.86
311.845	-11.74
312.214	-11.39
312.583	-11.27
312.952	-10.86
313.321	-10.65
313.69	-10.82
314.059	-11.36
314.428	-11.57
314.797	-11.91
315.166	-12.65
315.535	-12.99
315.904	-13.19
316.272	-13.55
316.641	-13.72
317.01	-13.89
317.379	-14.04
317.747	-13.72
318.116	-13.14
318.484	-12.68
318.853	-12.28
319.221	-12.03
319.59	-11.64
319.958	-11.61
320.327	-11.15
320.695	-10.99
321.063	-10.52
321.432	-10.01
321.8	-9.6
322.168	-8.59
322.536	-7.48
322.905	-6.13
323.273	-5.78
323.641	-5.31
324.009	-5.17
324.377	-4.85
324.745	-4.59
325.113	-4.21
325.481	-3.72
325.849	-3.22
326.216	-2.83
326.584	-2.49
326.952	-2.38
327.32	-1.9
327.687	-1.38
328.055	-1.03
328.423	-0.85
328.79	-0.84
329.158	-0.84
329.525	-0.44
329.893	-0.36
330.26	-0.31
330.628	-0.5
330.995	-0.22
331.362	-0.13
331.73	0.49
332.097	0.8
332.464	1.09
332.831	1.41
333.199	1.7
333.566	1.7
333.933	1.58
334.3	1.59
334.667	2
335.034	2.08
335.401	2.17
335.768	2.27
336.135	2.68
336.502	2.96
336.868	3.37
337.235	3.56
337.602	3.78
337.969	4.14
338.335	4.43
338.702	4.61
339.069	4.84
339.435	5.11
339.802	5.32
340.168	5.56
340.535	5.73
340.901	5.82
341.267	6.13
341.634	6.52
342	6.75
342.366	6.78
342.733	6.85
343.099	7.15
343.465	7.4
343.831	7.49
344.197	7.7
344.563	7.82
344.929	7.98
345.295	8.15
345.661	8.18
346.027	8.34
346.393	8.47
346.759	8.53
347.125	8.6
347.491	8.78
347.856	8.87
348.222	8.87
348.588	8.99
348.953	9.09
349.319	9.24
349.684	9.37
350.05	9.5
350.415	9.82
350.781	9.95
351.146	9.96
351.512	9.94
351.877	9.97
352.242	9.99
352.608	10.05
352.973	10.14
353.338	10.26
353.703	10.33
354.068	10.42
354.433	10.59
354.798	10.8
355.164	10.9
355.528	11.02
355.893	11.18
356.258	11.36
356.623	11.47
356.988	11.6
357.353	11.88
357.718	12.07
358.082	12.18
358.447	12.18
358.812	12.29
359.176	12.58
359.541	12.81
359.905	13.04
360.27	13.16
360.634	13.24
360.999	13.33
361.363	13.46
361.728	13.55
362.092	13.66
362.456	13.63
362.821	13.61
363.185	13.66
363.549	13.8
363.913	13.82
364.277	13.83
364.641	13.93
365.005	13.89
365.369	13.94
365.733	14.01
366.097	14.17
366.461	14.21
366.825	14.08
367.189	14.06
367.553	14.13
367.916	14.27
368.28	14.31
368.644	14.43
369.007	14.57
369.371	14.7
369.734	14.76
370.098	14.84
370.461	15.1
370.825	15.23
371.188	15.33
371.552	15.51
371.915	15.72
372.278	15.83
372.642	15.93
373.005	16.02
373.368	16
373.731	16.06
374.094	16.18
374.457	16.33
374.82	16.43
375.183	16.46
375.546	16.47
375.909	16.58
376.272	16.62
376.635	16.56
376.998	16.58
377.361	16.68
377.723	16.75
378.086	16.77
378.449	16.87
378.811	16.94
379.174	16.96
379.537	17.01
379.899	17.03
380.262	17.06
380.624	17.09
380.987	17.19
381.349	17.25
381.711	17.33
382.074	17.36
382.436	17.41
382.798	17.49
383.16	17.52
383.522	17.56
383.884	17.61
384.247	17.75
384.609	17.82
384.971	17.81
385.333	17.86
385.695	17.89
386.056	17.88
386.418	17.8
386.78	17.82
387.142	17.86
387.504	17.88
387.865	17.88
388.227	17.96
388.589	17.99
388.95	18.01
389.312	17.96
389.673	17.96
390.035	18
390.396	18.01
390.758	17.98
391.119	17.99
391.48	17.97
391.842	17.96
392.203	17.91
392.564	17.92
392.925	17.92
393.286	17.89
393.648	17.87
394.009	17.9
394.37	17.88
394.731	17.81
395.092	17.76
395.452	17.77
395.813	17.75
396.174	17.74
396.535	17.73
396.896	17.74
397.257	17.77
397.617	17.75
397.978	17.73
398.338	17.78
398.699	17.78
399.06	17.78
399.42	17.71
399.781	17.71
400.141	17.7
400.501	17.67
400.862	17.66
401.222	17.66
401.582	17.64
401.943	17.63
402.303	17.63
402.663	17.65
403.023	17.65
403.383	17.62
403.743	17.61
404.103	17.61
404.463	17.63
404.823	17.66
405.183	17.6
405.543	17.56
405.903	17.54
406.262	17.47
406.622	17.43
406.982	17.44
407.342	17.46
407.701	17.43
408.061	17.4
408.42	17.37
408.78	17.37
409.139	17.37
409.499	17.37
409.858	17.37
410.217	17.35
410.577	17.31
410.936	17.25
411.295	17.21
411.655	17.14
412.014	17.08
412.373	16.98
412.732	16.97
413.091	16.94
413.45	16.86
413.809	16.82
414.168	16.74
414.527	16.66
414.886	16.53
415.245	16.43
415.603	16.36
415.962	16.26
416.321	16.17
416.679	16.09
417.038	15.97
417.397	15.86
417.755	15.75
418.114	15.7
418.472	15.66
418.831	15.59
419.189	15.54
419.547	15.46
419.906	15.4
420.264	15.31
420.622	15.25
420.981	15.19
421.339	15.13
421.697	15.1
422.055	15.07
422.413	15.07
422.771	15.05
423.129	15.03
423.487	15.01
423.845	14.99
424.203	14.96
424.56	14.97
424.918	14.97
425.276	14.98
425.634	14.96
425.991	14.93
426.349	14.93
426.707	14.91
427.064	14.9
427.422	14.9
427.779	14.9
428.137	14.88
428.494	14.87
428.851	14.86
429.209	14.81
429.566	14.74
429.923	14.65
430.28	14.59
430.637	14.54
430.995	14.49
431.352	14.46
431.709	14.41
432.066	14.37
432.423	14.33
432.78	14.29
433.137	14.25
433.493	14.22
433.85	14.18
434.207	14.11
434.564	14.07
434.92	13.99
435.277	13.93
435.634	13.9
435.99	13.83
436.347	13.75
436.703	13.68
437.06	13.66
437.416	13.61
437.773	13.58
438.129	13.52
438.485	13.49
438.841	13.46
439.198	13.43
439.554	13.39
439.91	13.36
440.266	13.31
440.622	13.26
440.978	13.2
441.334	13.14
441.69	13.09
442.046	13.03
442.402	12.94
442.758	12.88
443.113	12.8
443.469	12.75
443.825	12.7
444.181	12.66
444.536	12.62
444.892	12.58
445.247	12.55
445.603	12.51
445.958	12.46
446.314	12.42
446.669	12.4
447.025	12.36
447.38	12.33
447.735	12.29
448.09	12.25
448.446	12.22
448.801	12.19
449.156	12.17
449.511	12.14
449.866	12.16
450.221	12.17
450.576	12.18
450.931	12.17
451.286	12.14
451.641	12.11
451.995	12.06
452.35	12.04
452.705	12
453.06	11.98
453.414	11.95
453.769	11.93
454.123	11.86
454.478	11.82
454.832	11.77
455.187	11.71
455.541	11.64
455.896	11.56
456.25	11.47
456.604	11.39
456.958	11.32
457.313	11.27
457.667	11.22
458.021	11.17
458.375	11.16
458.729	11.13
459.083	11.11
459.437	11.09
459.791	11.06
460.145	11.03
460.499	11.02
460.852	10.99
461.206	10.97
461.56	10.95
461.914	10.93
462.267	10.91
462.621	10.9
462.974	10.89
463.328	10.89
463.681	10.89
464.035	10.89
464.388	10.88
464.742	10.86
465.095	10.83
465.448	10.82
465.801	10.77
466.155	10.74
466.508	10.71
466.861	10.67
467.214	10.65
467.567	10.63
467.92	10.6
468.273	10.58
468.626	10.55
468.979	10.52
469.332	10.47
469.684	10.44
470.037	10.42
470.39	10.39
470.743	10.37
471.095	10.34
471.448	10.33
471.8	10.32
472.153	10.29
472.505	10.28
472.858	10.25
473.21	10.21
473.562	10.17
473.915	10.14
474.267	10.11
474.619	10.07
474.971	10.02
475.324	9.99
475.676	9.95
476.028	9.91
476.38	9.88
476.732	9.86
477.084	9.82
477.436	9.78
477.787	9.73
478.139	9.7
478.491	9.66
478.843	9.61
479.195	9.55
479.546	9.45
479.898	9.3
480.249	9.17
480.601	9.09
480.952	9.04
481.304	9.01
481.655	8.97
482.007	8.96
482.358	8.96
482.709	8.93
483.061	8.91
483.412	8.89
483.763	8.86
484.114	8.82
484.465	8.79
484.816	8.76
485.167	8.75
485.518	8.74
485.869	8.73
486.22	8.72
486.571	8.72
486.922	8.73
487.272	8.74
487.623	8.74
487.974	8.74
488.324	8.72
488.675	8.7
489.025	8.69
489.376	8.68
489.726	8.66
490.077	8.66
490.427	8.67
490.778	8.67
491.128	8.68
491.478	8.71
491.828	8.74
492.179	8.77
492.529	8.78
492.879	8.77
493.229	8.78
493.579	8.78
493.929	8.76
494.279	8.75
494.629	8.75
494.979	8.79
495.328	8.82
495.678	8.85
496.028	8.87
496.378	8.89
496.727	8.9
497.077	8.89
497.426	8.9
497.776	8.89
498.125	8.87
498.475	8.88
498.824	8.87
499.174	8.85
499.523	8.84
499.872	8.83
500.221	8.84
500.571	8.81
500.92	8.81
501.269	8.81
501.618	8.8
501.967	8.78
502.316	8.76
502.665	8.75
503.014	8.76
503.363	8.76
503.711	8.74
504.06	8.71
504.409	8.69
504.758	8.67
505.106	8.66
505.455	8.66
505.803	8.63
506.152	8.62
506.5	8.63
506.849	8.63
507.197	8.62
507.546	8.6
507.894	8.6
508.242	8.62
508.59	8.6
508.939	8.6
509.287	8.6
509.635	8.62
509.983	8.63
510.331	8.61
510.679	8.61
511.027	8.59
511.375	8.61
511.723	8.61
512.07	8.61
512.418	8.63
512.766	8.65
513.114	8.65
513.461	8.66
513.809	8.67
514.156	8.66
514.504	8.67
514.851	8.69
515.199	8.68
515.546	8.65
515.893	8.64
516.241	8.64
516.588	8.65
516.935	8.66
517.282	8.64
517.63	8.65
517.977	8.66
518.324	8.69
518.671	8.72
519.018	8.71
519.365	8.71
519.711	8.71
520.058	8.69
520.405	8.69
520.752	8.67
521.099	8.67
521.445	8.66
521.792	8.66
522.138	8.64
522.485	8.65
522.832	8.66
523.178	8.68
523.524	8.68
523.871	8.68
524.217	8.69
524.563	8.65
524.91	8.61
525.256	8.54
525.602	8.49
525.948	8.46
526.294	8.45
526.64	8.45
526.986	8.45
527.332	8.46
527.678	8.47
528.024	8.48
528.37	8.5
528.716	8.51
529.061	8.51
529.407	8.52
529.753	8.5
530.098	8.5
530.444	8.5
530.789	8.5
531.135	8.51
531.48	8.51
531.826	8.54
532.171	8.58
532.516	8.63
532.862	8.68
533.207	8.72
533.552	8.74
533.897	8.76
534.242	8.77
534.587	8.77
534.932	8.79
535.277	8.79
535.622	8.79
535.967	8.81
536.312	8.83
536.657	8.85
537.001	8.89
537.346	8.92
537.691	8.93
538.035	8.92
538.38	8.9
538.724	8.89
539.069	8.9
539.413	8.9
539.758	8.91
540.102	8.92
540.446	8.93
540.791	8.96
541.135	8.98
541.479	8.99
541.823	9.01
542.167	9.02
542.512	9.03
542.856	9.04
543.2	9.04
543.543	9.03
543.887	9.05
544.231	9.07
544.575	9.09
544.919	9.14
545.262	9.19
545.606	9.25
545.95	9.3
546.293	9.33
546.637	9.35
546.98	9.4
547.324	9.44
547.667	9.48
548.011	9.5
548.354	9.5
548.697	9.54
549.04	9.58
549.384	9.63
549.727	9.66
550.07	9.7
550.413	9.75
550.756	9.8
551.099	9.84
551.442	9.87
551.785	9.91
552.128	9.93
552.47	9.98
552.813	10
553.156	10.02
553.499	10.08
553.841	10.12
554.184	10.15
554.526	10.2
554.869	10.2
555.211	10.23
555.554	10.28
555.896	10.29
556.238	10.33
556.581	10.36
556.923	10.41
557.265	10.45
557.607	10.5
557.949	10.55
558.291	10.57
558.633	10.61
558.975	10.64
559.317	10.68
559.659	10.71
560.001	10.77
560.343	10.84
560.685	10.85
561.026	10.9
561.368	10.91
561.71	10.93
562.051	11.01
562.393	11.08
562.734	11.12
563.076	11.21
563.417	11.27
563.759	11.35
564.1	11.42
564.441	11.47
564.782	11.52
565.124	11.59
565.465	11.65
565.806	11.74
566.147	11.8
566.488	11.88
566.829	11.94
567.17	12.02
567.511	12.09
567.851	12.19
568.192	12.27
568.533	12.38
568.874	12.47
569.214	12.62
569.555	12.73
569.895	12.83
570.236	12.94
570.576	13.05
570.917	13.14
571.257	13.21
571.598	13.36
571.938	13.48
572.278	13.57
572.618	13.69
572.959	13.82
573.299	13.93
573.639	14.03
573.979	14.14
574.319	14.24
574.659	14.34
574.999	14.44
575.339	14.56
575.678	14.69
576.018	14.79
576.358	14.86
576.698	14.97
577.037	15.09
577.377	15.2
577.716	15.34
578.056	15.43
578.395	15.58
578.735	15.67
579.074	15.78
579.413	15.9
579.753	16.01
580.092	16.1
580.431	16.22
580.77	16.37
581.109	16.52
581.448	16.65
581.787	16.79
582.126	16.92
582.465	17.05
582.804	17.18
583.143	17.35
583.482	17.48
583.82	17.61
584.159	17.75
584.498	17.86
584.836	17.95
585.175	18.13
585.514	18.29
585.852	18.48
586.19	18.61
586.529	18.78
586.867	18.94
587.205	19.09
587.544	19.26
587.882	19.39
588.22	19.48
588.558	19.59
588.896	19.71
589.234	19.87
589.572	19.98
589.91	20.06
590.248	20.15
590.586	20.3
590.924	20.42
591.262	20.55
591.599	20.73
591.937	20.86
592.275	20.97
592.612	21.06
592.95	21.16
593.287	21.33
593.625	21.52
593.962	21.67
594.299	21.82
594.637	21.93
594.974	22.05
595.311	22.16
595.648	22.24
595.985	22.35
596.322	22.42
596.659	22.56
596.996	22.65
597.333	22.76
597.67	22.83
598.007	22.89
598.344	22.94
598.681	22.98
599.017	23.07
599.354	23.17
599.691	23.26
600.027	23.35
600.364	23.43
600.7	23.48
601.037	23.61
601.373	23.72
601.71	23.83
602.046	23.92
602.382	24.01
602.718	24.09
603.054	24.13
603.391	24.13
603.727	24.14
604.063	24.2
604.399	24.24
604.735	24.27
605.071	24.34
605.406	24.44
605.742	24.5
606.078	24.58
606.414	24.68
606.749	24.75
607.085	24.81
607.421	24.88
607.756	24.93
608.092	24.94
608.427	24.94
608.762	24.96
609.098	24.95
609.433	24.97
609.768	24.99
610.104	25
610.439	25.11
610.774	25.15
611.109	25.19
611.444	25.25
611.779	25.28
612.114	25.32
612.449	25.31
612.784	25.32
613.118	25.32
613.453	25.26
613.788	25.28
614.123	25.27
614.457	25.26
614.792	25.29
615.126	25.29
615.461	25.32
615.795	25.3
616.13	25.39
616.464	25.43
616.798	25.48
617.132	25.53
617.467	25.55
617.801	25.53
618.135	25.57
618.469	25.59
618.803	25.59
619.137	25.6
619.471	25.66
619.805	25.67
620.139	25.69
620.472	25.74
620.806	25.69
621.14	25.68
621.473	25.68
621.807	25.67
622.141	25.71
622.474	25.7
622.808	25.77
623.141	25.79
623.474	25.85
623.808	25.88
624.141	25.92
624.474	25.95
624.807	26.03
625.141	26.03
625.474	26.01
625.807	26.03
626.14	26.07
626.473	26.09
626.806	26.16
627.138	26.16
627.471	26.15
627.804	26.22
628.137	26.25
628.469	26.31
628.802	26.29
629.135	26.28
629.467	26.28
629.8	26.27
630.132	26.28
630.465	26.24
630.797	26.23
631.129	26.22
631.461	26.2
631.794	26.21
632.126	26.22
632.458	26.29
632.79	26.34
633.122	26.34
633.454	26.41
633.786	26.41
634.118	26.38
634.45	26.4
634.781	26.35
635.113	26.38
635.445	26.32
635.777	26.33
636.108	26.37
636.44	26.43
636.771	26.41
637.103	26.44
637.434	26.43
637.765	26.42
638.097	26.49
638.428	26.52
638.759	26.51
639.09	26.49
639.422	26.43
639.753	26.42
640.084	26.42
640.415	26.34
640.746	26.31
641.077	26.36
641.407	26.37
641.738	26.42
642.069	26.39
642.4	26.43
642.73	26.49
643.061	26.47
643.392	26.44
643.722	26.5
644.053	26.54
644.383	26.58
644.713	26.57
645.044	26.51
645.374	26.47
645.704	26.45
646.034	26.51
646.365	26.55
646.695	26.52
647.025	26.47
647.355	26.46
647.685	26.49
648.015	26.49
648.344	26.55
648.674	26.56
649.004	26.63
649.334	26.63
649.663	26.62
649.993	26.68
650.323	26.72
650.652	26.69
650.982	26.6
651.311	26.55
651.64	26.58
651.97	26.58
652.299	26.64
652.628	26.7
652.958	26.69
653.287	26.72
653.616	26.78
653.945	26.8
654.274	26.75
654.603	26.74
654.932	26.76
655.261	26.77
655.589	26.84
655.918	26.87
656.247	26.91
656.576	26.95
656.904	26.95
657.233	27
657.561	27
657.89	27.05
658.218	27.12
658.547	27.16
658.875	27.19
659.203	27.17
659.532	27.11
659.86	27.1
660.188	27.08
660.516	27.09
660.844	27.12
661.172	27.18
661.5	27.2
661.828	27.11
662.156	27.06
662.484	27.01
662.811	26.99
663.139	27.02
663.467	27
663.794	26.97
664.122	26.89
664.45	26.84
664.777	26.84
665.104	26.83
665.432	26.76
665.759	26.76
666.086	26.72
666.414	26.8
666.741	26.82
667.068	26.79
667.395	26.74
667.722	26.79
668.049	26.77
668.376	26.75
668.703	26.83
669.03	26.82
669.357	26.82
669.683	26.72
670.01	26.74
670.337	26.75
670.663	26.74
670.99	26.77
671.317	26.8
671.643	26.87
671.969	26.85
672.296	26.88
672.622	26.86
672.948	26.88
673.275	26.8
673.601	26.75
673.927	26.73
674.253	26.84
674.579	26.74
674.905	26.74
675.231	26.77
675.557	26.82
675.883	26.85
676.209	26.92
676.534	27.05
676.86	27.08
677.186	27.08
677.511	27.15
677.837	27.18
678.162	27.24
678.488	27.25
678.813	27.31
679.139	27.41
679.464	27.42
679.789	27.45
680.114	27.47
680.44	27.49
680.765	27.51
681.09	27.49
681.415	27.54
681.74	27.62
682.065	27.58
682.39	27.55
682.714	27.55
683.039	27.5
683.364	27.42
683.689	27.33
684.013	27.35
684.338	27.37
684.662	27.39
684.987	27.37
685.311	27.32
685.636	27.25
685.96	27.17
686.284	27.15
686.608	27.12
686.933	27.08
687.257	27.1
687.581	27.05
687.905	27.05
688.229	27.07
688.553	27.02
688.877	26.98
689.201	26.98
689.524	26.91
689.848	26.9
690.172	26.91
690.496	26.91
690.819	26.86
691.143	26.79
691.466	26.71
691.79	26.74
692.113	26.71
692.436	26.67
692.76	26.66
693.083	26.63
693.406	26.66
693.729	26.66
694.053	26.69
694.376	26.76
694.699	26.73
695.022	26.86
695.344	27
695.667	27.2
695.99	27.36
696.313	27.49
696.636	27.65
696.958	27.73
697.281	27.79
697.604	27.81
697.926	27.78
698.249	27.84
698.571	27.79
698.893	27.83
699.216	27.91
699.538	27.94
699.86	27.89
700.182	27.88
700.504	27.9
700.827	27.87
701.149	27.87
701.471	27.86
701.793	27.7
702.114	27.6
702.436	27.46
702.758	27.26
703.08	27.14
703.401	26.96
703.723	26.83
704.045	26.73
704.366	26.71
704.688	26.8
705.009	26.8
705.331	26.83
705.652	26.82
705.973	26.67
706.294	26.72
706.616	26.87
706.937	26.82
707.258	26.95
707.579	26.98
707.9	27.06
708.221	27.18
708.542	27.18
708.863	27.2
709.183	27.23
709.504	27.26
709.825	27.29
710.145	27.36
710.466	27.46
710.787	27.48
711.107	27.51
711.427	27.45
711.748	27.35
712.068	27.38
712.388	27.42
712.709	27.55
713.029	27.47
713.349	27.49
713.669	27.6
713.989	27.64
714.309	27.75
714.629	27.71
714.949	27.53
715.269	27.55
715.589	27.63
715.908	27.66
716.228	27.63
716.548	27.63
716.867	27.56
717.187	27.48
717.506	27.56
717.826	27.68
718.145	27.75
718.465	27.83
718.784	27.98
719.103	27.91
719.422	27.83
719.741	27.92
720.061	27.94
720.38	27.92
720.699	27.97
721.018	27.96
721.336	27.94
721.655	28.19
721.974	28.31
722.293	28.26
722.612	28.34
722.93	28.47
723.249	28.75
723.567	28.89
723.886	29
724.204	29.09
724.523	29.11
724.841	29.21
725.159	29.38
725.477	29.43
725.796	29.61
726.114	29.94
726.432	30.09
726.75	30.13
727.068	30.27
727.386	30.22
727.704	30.44
728.022	30.58
728.339	30.65
728.657	30.73
728.975	30.86
729.292	30.97
729.61	31.06
729.928	30.99
730.245	30.97
730.562	31.15
730.88	31.15
731.197	31.3
731.514	31.36
731.832	31.38
732.149	31.44
732.466	31.53
732.783	31.49
733.1	31.49
733.417	31.71
733.734	31.81
734.051	31.89
734.368	31.86
734.684	32.02
735.001	32.08
735.318	32.14
735.634	32.26
735.951	32.42
736.268	32.64
736.584	32.85
736.9	33.11
737.217	33.07
737.533	33.27
737.849	33.28
738.166	33.4
738.482	33.6
738.798	33.66
739.114	33.79
739.43	33.92
739.746	34.13
740.062	34.2
740.378	34.38
740.693	34.55
741.009	34.53
741.325	34.48
741.641	34.52
741.956	34.62
742.272	34.64
742.587	34.7
742.903	34.85
743.218	34.94
743.533	35.04
743.849	35.2
744.164	35.15
744.479	35.3
744.794	35.41
745.109	35.36
745.424	35.43
745.739	35.47
746.054	35.57
746.369	35.67
746.684	35.62
746.999	35.61
747.313	35.68
747.628	35.93
747.943	36.27
748.257	36.56
748.572	36.62
748.886	36.83
749.201	36.83
749.515	36.72
749.829	36.62
750.144	36.58
750.458	36.75
750.772	36.91
751.086	36.88
751.4	36.86
751.714	37.06
752.028	37.13
752.342	37.25
752.656	37.4
752.97	37.44
753.284	37.63
753.597	37.68
753.911	37.55
754.225	37.55
754.538	37.53
754.852	37.49
755.165	37.67
755.478	37.76
755.792	37.89
756.105	37.92
756.418	38.02
756.731	38.1
757.045	38.12
757.358	38.16
757.671	38.27
757.984	38.42
758.297	38.57
758.609	38.57
758.922	38.63
759.235	38.47
759.548	38.48
759.86	38.56
760.173	38.5
760.486	38.52
760.798	38.41
761.111	38.45
761.423	38.49
761.735	38.42
762.048	38.37
762.36	38.35
762.672	38.41
762.984	38.56
763.296	38.73
763.608	38.8
763.92	38.85
764.232	38.98
764.544	39.14
764.856	39
765.168	39.15
765.48	39.24
765.791	39.47
766.103	39.7
766.414	39.73
766.726	40.04
767.037	40.36
767.349	40.73
767.66	40.76
767.972	41
768.283	41.39
768.594	41.65
768.905	41.95
769.216	42.34
769.527	42.43
769.838	42.62
770.149	42.76
770.46	42.99
770.771	43.02
771.082	42.9
771.393	43.06
771.703	43.26
772.014	43.27
772.324	43.14
772.635	43.3
772.945	43.46
773.256	43.44
773.566	43.55
773.877	43.95
774.187	44.07
774.497	44.02
774.807	43.97
775.117	44.01
775.427	44.03
775.737	43.95
776.047	44.16
776.357	44.19
776.667	44.42
776.977	44.51
777.287	44.7
777.596	44.93
777.906	45.26
778.216	45.25
778.525	45.68
778.835	46.04
779.144	45.81
779.453	45.97
779.763	46.11
780.072	46.25
780.381	45.9
780.69	46.25
781	46.55
781.309	46.82
781.618	47.28
781.927	47.44
782.235	47.6
782.544	47.71
782.853	47.86
783.162	47.53
783.471	47.75
783.779	47.83
784.088	48.02
784.396	47.98
784.705	48.14
785.013	47.63
785.322	47.27
785.63	47.07
785.938	46.76
786.246	46.66
786.554	46.61
786.863	46.69
787.171	46.7
787.479	46.57
787.787	46.44
788.094	46.17
788.402	46.12
788.71	46.3
789.018	46.34
789.326	46.49
789.633	46.76
789.941	46.76
790.248	46.9
790.556	46.83
790.863	46.92
791.171	46.88
791.478	47.14
791.785	47.58
792.092	47.91
792.399	48.19
792.707	48.37
793.014	48.46
793.321	48.65
793.628	48.49
793.934	48.4
794.241	48.14
794.548	48.16
794.855	48.29
795.161	47.98
795.468	47.83
795.775	47.76
796.081	47.77
796.388	47.83
796.694	47.78
797	47.77
797.307	47.71
797.613	47.98
797.919	48.19
798.225	48.28
798.531	48.56
798.837	48.57
799.143	48.71
799.449	48.75
799.755	48.51
800.061	48.86
800.367	49.12
800.672	49.76
800.978	50.09
801.284	50.14
801.589	50.55
801.895	50.9
802.2	50.98
802.506	51.12
802.811	50.82
803.116	50.56
803.421	50.88
803.727	51.09
804.032	50.7
804.337	50.7
804.642	50.54
804.947	50.57
805.252	50.88
805.556	50.93
805.861	51.21
806.166	51.7
806.471	51.96
806.775	52.41
807.08	52.37
807.384	52.46
807.689	52.34
807.993	52.5
808.298	52.52
808.602	52.16
808.906	52.28
809.211	52.64
809.515	53.02
809.819	52.88
810.123	53.38
810.427	53.58
810.731	53.28
811.035	53.63
811.338	53.76
811.642	53.91
811.946	54
812.25	53.94
812.553	53.79
812.857	53.45
813.16	53.37
813.464	53.67
813.767	53.95
814.07	54.21
814.374	54.03
814.677	54.19
814.98	55.01
815.283	54.9
815.586	54.88
815.889	54.76
816.192	54.52
816.495	53.86
816.798	53.63
817.101	53.54
817.404	52.97
817.706	52.47
818.009	51.62
818.312	50.82
818.614	49.76
818.917	48.43
819.219	46.85
819.521	45.11
819.824	43.4
820.126	42.24
820.428	41.46
820.73	40.81
821.032	40.22
821.334	39.68
821.636	39.51
821.938	39.28
822.24	39.09
822.542	39.01
822.844	38.98
823.145	38.98
823.447	38.82
823.749	38.71
824.05	38.58
824.352	38.51
824.653	38.46
824.955	38.5
825.256	38.49
825.557	38.65
825.858	38.73
826.16	39.02
826.461	39.21
826.762	39.48
827.063	39.8
827.364	40.21
827.665	40.72
827.965	40.98
828.266	41.57
828.567	42
828.868	42.13
829.168	42.43
829.469	42.54
829.769	43.22
830.07	43.64
830.37	43.96
830.67	44.55
830.971	45.1
831.271	45.49
831.571	45.93
831.871	45.86
832.171	46.1
832.471	46.3
832.771	46.6
833.071	46.92
833.371	47.2
833.671	47.25
833.971	47.44
834.27	47.45
834.57	47.34
834.869	47.26
835.169	47.61
835.468	47.36
835.768	47.41
836.067	47.2
836.367	47.39
836.666	47.88
836.965	48
837.264	48.01
837.563	48.37
837.862	49.06
838.161	49.99
838.46	51.2
838.759	51.74
839.058	52.13
839.356	52.57
839.655	53.15
839.954	53.9
840.252	54.11
840.551	54.87
840.849	55.06
841.148	55.48
841.446	55.86
841.744	56.42
842.043	57.27
842.341	57.58
842.639	58.05
842.937	58.05
843.235	58.86
843.533	59.81
843.831	60.5
844.129	61.44
844.427	62.1
844.724	62.27
845.022	62.99
845.32	63.79
845.617	64.51
845.915	65.37
846.212	66.04
846.51	67.04
846.807	67.87
847.104	67.83
847.402	68.49
847.699	68.68
847.996	69.3
848.293	68.69
848.59	68.4
848.887	67.49
849.184	67.81
849.481	67.91
849.778	68.56
850.074	68.79
850.371	68.55
850.668	68.04
850.964	68.45
851.261	69.59
851.557	71.21
851.854	71.71
852.15	71.32
852.446	71.34
852.743	70.77
853.039	70.46
853.335	70.92
853.631	71.55
853.927	71.8
854.223	71.24
854.519	71.71
854.815	71.91
855.111	72.62
855.406	72.36
855.702	72.94
855.998	73.26
856.293	73.22
856.589	73.6
856.884	74.05
857.18	73.89
857.475	73.01
857.77	72.35
858.066	71.91
858.361	71.4
858.656	71.6
858.951	71.48
859.246	71.48
859.541	71.49
859.836	69.78
860.131	69.43
860.426	69.68
860.72	69.73
861.015	70.49
861.31	70.75
861.604	71.43
861.899	70.12
862.193	68.98
862.487	68.77
862.782	68.87
863.076	69.08
863.37	69.97
863.664	69.47
863.959	68.57
864.253	68.85
864.547	69.62
864.841	69.67
865.135	69.6
865.428	68.64
865.722	68.71
866.016	70.26
866.31	70.95
866.603	70.89
866.897	70.65
867.19	70.14
867.484	69.41
867.777	68.88
868.07	69.33
868.364	69.85
868.657	70.31
868.95	69.53
869.243	69.77
869.536	68.59
869.829	68.84
870.122	68.73
870.415	67.63
870.708	66.58
871	65.27
871.293	65.07
871.586	65.36
871.878	65.58
872.171	65.24
872.463	64.81
872.756	65.62
873.048	66.17
873.341	66.19
873.633	66.39
873.925	66.36
874.217	66.26
874.509	66.17
874.801	65.64
875.093	66.06
875.385	64.98
875.677	64.86
875.969	64.76
