Data from pcis_c_h1_p2_Reflection_2.txt Node
Date: Wed Jul 12 17:24:50 ART 2017
User: rodoncho
Spectrometer: USB2E3644
Trigger mode: 4
Integration Time (sec): 6.000000E-2
Scans to average: 10
Electric dark correction enabled: true
Nonlinearity correction enabled: false
Boxcar width: 10
XAxis mode: Wavelengths
Number of Pixels in Spectrum: 2048
>>>>>Begin Spectral Data<<<<<
178.315	181.82
178.696	136.36
179.076	31.08
179.457	29.25
179.838	55.56
180.218	37.74
180.599	-68.75
180.979	88.89
181.36	-162.5
181.74	-146.43
182.121	-60
182.501	134.15
182.881	274.36
183.262	3133.33
183.642	-321.05
184.022	-96.97
184.402	-3.39
184.783	36
185.163	43.1
185.543	65.38
185.923	73.48
186.303	76.6
186.683	78.85
187.063	77.13
187.443	78.04
187.823	86.36
188.203	90.25
188.583	97.08
188.963	96.97
189.343	102.09
189.723	115.08
190.102	113.03
190.482	112.82
190.862	115.14
191.242	116.84
191.621	117.85
192.001	114.79
192.38	117.51
192.76	119.07
193.14	118.04
193.519	118.56
193.898	118.77
194.278	121.38
194.657	120.27
195.037	119.05
195.416	120.99
195.795	119.82
196.175	121.19
196.554	116.79
196.933	116.95
197.312	118.08
197.692	117.14
198.071	115.47
198.45	114.04
198.829	114.77
199.208	115.67
199.587	113.96
199.966	114.44
200.345	113.2
200.724	113.19
201.103	111.83
201.482	111.54
201.86	110.89
202.239	110.38
202.618	110.14
202.997	109.18
203.375	106.16
203.754	106.65
204.133	104.74
204.511	105.9
204.89	107.07
205.269	107.18
205.647	106.83
206.026	107.56
206.404	107.79
206.782	108.05
207.161	106.84
207.539	106.03
207.918	106.42
208.296	105
208.674	102.09
209.052	101.74
209.431	99.68
209.809	98.57
210.187	98.25
210.565	99.04
210.943	100.16
211.321	101.62
211.699	101.22
212.077	101.45
212.455	101.52
212.833	102.49
213.211	102.86
213.589	103.28
213.967	102.79
214.345	103.33
214.722	103.99
215.1	104.55
215.478	105.69
215.855	105.05
216.233	107.11
216.611	109.51
216.988	109.74
217.366	111.37
217.743	113.35
218.121	114.34
218.498	114.39
218.876	114.15
219.253	113.74
219.631	114.07
220.008	114.39
220.385	114.29
220.762	112.48
221.14	110.07
221.517	109.44
221.894	109.23
222.271	109.51
222.648	109.74
223.025	111.21
223.402	111.06
223.78	110.45
224.157	110.44
224.533	110.98
224.91	112.42
225.287	113.33
225.664	112.27
226.041	110.69
226.418	110.31
226.795	109.66
227.171	110.02
227.548	110.07
227.925	110.3
228.301	110.04
228.678	110.25
229.055	111.42
229.431	112.98
229.808	114.43
230.184	115.45
230.561	114.97
230.937	113.91
231.313	114
231.69	115.16
232.066	115.95
232.442	116.74
232.819	117.07
233.195	117.26
233.571	118.21
233.947	119.13
234.323	118.6
234.699	118.52
235.075	117.21
235.451	116.45
235.827	116.94
236.203	117.99
236.579	119.76
236.955	121.07
237.331	120.65
237.707	120.94
238.083	121.39
238.459	124.46
238.834	130.22
239.21	134.43
239.586	138.47
239.961	141.77
240.337	144.49
240.713	145.19
241.088	147.06
241.464	149.4
241.839	156.32
242.215	165.53
242.59	178.88
242.965	208.28
243.341	259.13
243.716	335.85
244.091	469.57
244.467	641.6
244.842	898.87
245.217	1472.22
245.592	2636.07
245.967	5209.68
246.343	17855.56
246.718	9987.5
247.093	17711.11
247.468	-39300
247.843	-7181.82
248.218	-2390.91
248.593	-1346.22
248.967	-874.32
249.342	-703.1
249.717	-720.36
250.092	-740.65
250.467	-911.49
250.841	-1807.95
251.216	5746.43
251.591	1100
251.965	668.15
252.34	559.26
252.714	498.21
253.089	469.53
253.463	445.41
253.838	456.6
254.212	470.36
254.587	518.04
254.961	647.33
255.335	994.19
255.71	27983.33
256.084	-806.34
256.458	-377.67
256.832	-249.84
257.206	-206.99
257.581	-183.83
257.955	-172.87
258.329	-162.45
258.703	-149.85
259.077	-140.64
259.451	-132.74
259.825	-126.36
260.199	-121.83
260.572	-116.35
260.946	-110.51
261.32	-107.4
261.694	-105.13
262.068	-104.46
262.441	-103.89
262.815	-103.98
263.189	-104.37
263.562	-112.8
263.936	-129.79
264.309	-156.77
264.683	-194.7
265.056	-221.17
265.43	-233.44
265.803	-226.52
266.176	-212.2
266.55	-218.46
266.923	-212.57
267.296	-205.13
267.67	-191.1
268.043	-172.78
268.416	-155.34
268.789	-141.27
269.162	-124.5
269.535	-113.36
269.908	-105.56
270.281	-101.54
270.654	-101.54
271.027	-105.11
271.4	-107.28
271.773	-108.71
272.146	-108.17
272.519	-104.67
272.891	-100.62
273.264	-98.72
273.637	-98.06
274.01	-98.33
274.382	-95.67
274.755	-94.14
275.127	-93.4
275.5	-93.6
275.872	-93.9
276.245	-94.07
276.617	-96.34
276.99	-101.87
277.362	-106.47
277.734	-108.42
278.107	-106.34
278.479	-100.07
278.851	-95.21
279.223	-90.32
279.596	-87.23
279.968	-84.62
280.34	-84.61
280.712	-82.79
281.084	-79.02
281.456	-73.23
281.828	-68.46
282.2	-63.89
282.572	-59.21
282.944	-56.03
283.315	-54.44
283.687	-53.67
284.059	-53.84
284.431	-53.2
284.802	-52.23
285.174	-50.84
285.546	-49.95
285.917	-49.68
286.289	-49.15
286.66	-48.15
287.032	-48.08
287.403	-47.48
287.775	-47.34
288.146	-46.58
288.518	-46.21
288.889	-46.37
289.26	-48
289.632	-49.16
290.003	-50.11
290.374	-52.3
290.745	-53.17
291.116	-52.85
291.487	-51.71
291.858	-50.23
292.229	-49.29
292.6	-46.91
292.971	-45.09
293.342	-42.58
293.713	-40.32
294.084	-38.81
294.455	-37.81
294.826	-36.59
295.196	-36.26
295.567	-35.6
295.938	-35.47
296.308	-35.31
296.679	-34.51
297.05	-33.39
297.42	-32.86
297.791	-32.17
298.161	-30.9
298.532	-30.22
298.902	-29.92
299.272	-29.46
299.643	-28.74
300.013	-27.99
300.383	-27.65
300.754	-27.57
301.124	-28.06
301.494	-28.11
301.864	-28.15
302.234	-28.02
302.604	-27.82
302.974	-27.96
303.344	-27.62
303.714	-27.23
304.084	-26.45
304.454	-25.76
304.824	-24.75
305.194	-23.85
305.563	-22.65
305.933	-21.21
306.303	-19.95
306.673	-18.67
307.042	-17.65
307.412	-16.58
307.781	-15.51
308.151	-14.63
308.521	-13.99
308.89	-13.33
309.259	-13
309.629	-12.45
309.998	-12.15
310.368	-11.8
310.737	-11.07
311.106	-10.35
311.475	-9.49
311.845	-8.99
312.214	-8.42
312.583	-8.09
312.952	-7.67
313.321	-7.56
313.69	-7.91
314.059	-8.47
314.428	-8.86
314.797	-9.09
315.166	-9.96
315.535	-10.39
315.904	-10.78
316.272	-10.57
316.641	-10.47
317.01	-10.4
317.379	-10.41
317.747	-9.91
318.116	-9.65
318.484	-9.55
318.853	-9.35
319.221	-9.44
319.59	-9.12
319.958	-8.97
320.327	-8.71
320.695	-8.3
321.063	-7.89
321.432	-7.26
321.8	-6.4
322.168	-5.08
322.536	-4.03
322.905	-2.86
323.273	-2.41
323.641	-1.97
324.009	-2.13
324.377	-1.81
324.745	-1.38
325.113	-1.02
325.481	-0.73
325.849	-0.13
326.216	0.65
326.584	1.05
326.952	1.49
327.32	1.81
327.687	2.11
328.055	2.41
328.423	2.42
328.79	2.45
329.158	2.52
329.525	2.73
329.893	2.86
330.26	2.78
330.628	2.64
330.995	2.9
331.362	3.17
331.73	3.85
332.097	4.31
332.464	4.42
332.831	4.49
333.199	4.85
333.566	4.94
333.933	4.7
334.3	4.6
334.667	4.72
335.034	4.92
335.401	5.02
335.768	4.99
336.135	5.23
336.502	5.42
336.868	5.6
337.235	5.83
337.602	5.82
337.969	6.02
338.335	6.42
338.702	6.77
339.069	6.99
339.435	7.09
339.802	7.03
340.168	7.22
340.535	7.33
340.901	7.2
341.267	7.25
341.634	7.66
342	7.89
342.366	8
342.733	8.23
343.099	8.42
343.465	8.61
343.831	8.82
344.197	9.05
344.563	9.18
344.929	9.28
345.295	9.39
345.661	9.62
346.027	9.77
346.393	9.78
346.759	9.71
347.125	9.81
347.491	10
347.856	10.14
348.222	10.32
348.588	10.5
348.953	10.59
349.319	10.62
349.684	10.61
350.05	10.73
350.415	10.79
350.781	10.91
351.146	11.01
351.512	11.05
351.877	11.14
352.242	11.25
352.608	11.27
352.973	11.33
353.338	11.29
353.703	11.33
354.068	11.48
354.433	11.61
354.798	11.7
355.164	11.74
355.528	11.75
355.893	11.76
356.258	11.84
356.623	11.9
356.988	11.96
357.353	12.2
357.718	12.27
358.082	12.34
358.447	12.31
358.812	12.44
359.176	12.49
359.541	12.53
359.905	12.55
360.27	12.59
360.634	12.66
360.999	12.78
361.363	12.83
361.728	12.8
362.092	12.86
362.456	12.81
362.821	12.9
363.185	13.01
363.549	13.14
363.913	13.19
364.277	13.25
364.641	13.38
365.005	13.43
365.369	13.47
365.733	13.55
366.097	13.7
366.461	13.69
366.825	13.8
367.189	13.88
367.553	14.01
367.916	14.09
368.28	14.15
368.644	14.25
369.007	14.39
369.371	14.48
369.734	14.6
370.098	14.79
370.461	14.89
370.825	14.95
371.188	15.09
371.552	15.21
371.915	15.25
372.278	15.28
372.642	15.39
373.005	15.55
373.368	15.59
373.731	15.64
374.094	15.71
374.457	15.72
374.82	15.75
375.183	15.73
375.546	15.78
375.909	15.87
376.272	15.83
376.635	15.81
376.998	15.87
377.361	15.88
377.723	15.88
378.086	15.89
378.449	15.98
378.811	16
379.174	16.03
379.537	16.13
379.899	16.21
380.262	16.2
380.624	16.2
380.987	16.25
381.349	16.26
381.711	16.35
382.074	16.4
382.436	16.47
382.798	16.63
383.16	16.65
383.522	16.67
383.884	16.79
384.247	16.85
384.609	16.93
384.971	17
385.333	17.02
385.695	16.99
386.056	16.99
386.418	16.95
386.78	17.01
387.142	16.98
387.504	16.97
387.865	16.96
388.227	16.95
388.589	16.96
388.95	16.97
389.312	16.9
389.673	16.92
390.035	16.9
390.396	16.81
390.758	16.81
391.119	16.78
391.48	16.7
391.842	16.67
392.203	16.58
392.564	16.54
392.925	16.51
393.286	16.52
393.648	16.47
394.009	16.44
394.37	16.34
394.731	16.31
395.092	16.26
395.452	16.23
395.813	16.19
396.174	16.1
396.535	16.03
396.896	16.03
397.257	15.97
397.617	15.94
397.978	15.87
398.338	15.86
398.699	15.84
399.06	15.81
399.42	15.72
399.781	15.71
400.141	15.63
400.501	15.57
400.862	15.54
401.222	15.54
401.582	15.55
401.943	15.57
402.303	15.57
402.663	15.55
403.023	15.51
403.383	15.5
403.743	15.5
404.103	15.54
404.463	15.57
404.823	15.56
405.183	15.54
405.543	15.55
405.903	15.55
406.262	15.52
406.622	15.54
406.982	15.58
407.342	15.58
407.701	15.62
408.061	15.61
408.42	15.6
408.78	15.59
409.139	15.62
409.499	15.61
409.858	15.62
410.217	15.62
410.577	15.63
410.936	15.64
411.295	15.63
411.655	15.6
412.014	15.54
412.373	15.5
412.732	15.43
413.091	15.38
413.45	15.3
413.809	15.26
414.168	15.11
414.527	14.97
414.886	14.82
415.245	14.71
415.603	14.6
415.962	14.44
416.321	14.31
416.679	14.13
417.038	13.98
417.397	13.82
417.755	13.68
418.114	13.55
418.472	13.42
418.831	13.33
419.189	13.22
419.547	13.11
419.906	12.99
420.264	12.88
420.622	12.75
420.981	12.64
421.339	12.53
421.697	12.45
422.055	12.39
422.413	12.34
422.771	12.27
423.129	12.23
423.487	12.2
423.845	12.15
424.203	12.14
424.56	12.11
424.918	12.1
425.276	12.09
425.634	12.08
425.991	12.07
426.349	12.04
426.707	12.05
427.064	12.03
427.422	12.09
427.779	12.12
428.137	12.21
428.494	12.27
428.851	12.35
429.209	12.4
429.566	12.46
429.923	12.49
430.28	12.53
430.637	12.56
430.995	12.61
431.352	12.67
431.709	12.71
432.066	12.78
432.423	12.82
432.78	12.84
433.137	12.89
433.493	12.95
433.85	13.02
434.207	13.05
434.564	13.09
434.92	13.12
435.277	13.17
435.634	13.19
435.99	13.24
436.347	13.27
436.703	13.32
437.06	13.36
437.416	13.39
437.773	13.41
438.129	13.42
438.485	13.42
438.841	13.43
439.198	13.44
439.554	13.41
439.91	13.4
440.266	13.4
440.622	13.35
440.978	13.32
441.334	13.23
441.69	13.16
442.046	13.05
442.402	12.93
442.758	12.8
443.113	12.68
443.469	12.55
443.825	12.44
444.181	12.35
444.536	12.26
444.892	12.17
445.247	12.08
445.603	11.99
445.958	11.89
446.314	11.8
446.669	11.7
447.025	11.61
447.38	11.52
447.735	11.43
448.09	11.36
448.446	11.26
448.801	11.2
449.156	11.12
449.511	11.08
449.866	11.03
450.221	10.98
450.576	10.94
450.931	10.89
451.286	10.82
451.641	10.76
451.995	10.71
452.35	10.68
452.705	10.65
453.06	10.67
453.414	10.69
453.769	10.71
454.123	10.7
454.478	10.73
454.832	10.75
455.187	10.78
455.541	10.8
455.896	10.85
456.25	10.88
456.604	10.94
456.958	11
457.313	11.07
457.667	11.14
458.021	11.24
458.375	11.34
458.729	11.45
459.083	11.55
459.437	11.66
459.791	11.76
460.145	11.89
460.499	11.98
460.852	12.07
461.206	12.18
461.56	12.32
461.914	12.45
462.267	12.6
462.621	12.76
462.974	12.97
463.328	13.17
463.681	13.41
464.035	13.67
464.388	13.91
464.742	14.12
465.095	14.34
465.448	14.53
465.801	14.69
466.155	14.86
466.508	15.02
466.861	15.16
467.214	15.31
467.567	15.43
467.92	15.56
468.273	15.7
468.626	15.81
468.979	15.91
469.332	15.99
469.684	16.06
470.037	16.15
470.39	16.18
470.743	16.25
471.095	16.31
471.448	16.31
471.8	16.32
472.153	16.31
472.505	16.27
472.858	16.22
473.21	16.17
473.562	16.06
473.915	15.95
474.267	15.84
474.619	15.71
474.971	15.55
475.324	15.38
475.676	15.21
476.028	15.02
476.38	14.84
476.732	14.64
477.084	14.44
477.436	14.19
477.787	13.98
478.139	13.76
478.491	13.53
478.843	13.27
479.195	13
479.546	12.66
479.898	12.27
480.249	11.91
480.601	11.61
480.952	11.4
481.304	11.24
481.655	11.12
482.007	11.02
482.358	10.93
482.709	10.86
483.061	10.79
483.412	10.73
483.763	10.67
484.114	10.62
484.465	10.59
484.816	10.57
485.167	10.56
485.518	10.55
485.869	10.54
486.22	10.57
486.571	10.6
486.922	10.65
487.272	10.71
487.623	10.81
487.974	10.93
488.324	11.06
488.675	11.18
489.025	11.3
489.376	11.42
489.726	11.55
490.077	11.68
490.427	11.82
490.778	11.97
491.128	12.15
491.478	12.36
491.828	12.6
492.179	12.84
492.529	13.07
492.879	13.32
493.229	13.57
493.579	13.78
493.929	13.98
494.279	14.21
494.629	14.48
494.979	14.77
495.328	15.12
495.678	15.51
496.028	15.89
496.378	16.24
496.727	16.54
497.077	16.83
497.426	17.1
497.776	17.35
498.125	17.6
498.475	17.83
498.824	18.04
499.174	18.23
499.523	18.45
499.872	18.68
500.221	18.9
500.571	19.13
500.92	19.38
501.269	19.59
501.618	19.79
501.967	19.99
502.316	20.18
502.665	20.36
503.014	20.5
503.363	20.66
503.711	20.77
504.06	20.9
504.409	20.95
504.758	21.03
505.106	21.09
505.455	21.18
505.803	21.23
506.152	21.27
506.5	21.34
506.849	21.36
507.197	21.4
507.546	21.42
507.894	21.42
508.242	21.41
508.59	21.41
508.939	21.42
509.287	21.4
509.635	21.37
509.983	21.36
510.331	21.36
510.679	21.34
511.027	21.32
511.375	21.3
511.723	21.32
512.07	21.31
512.418	21.3
512.766	21.27
513.114	21.27
513.461	21.25
513.809	21.2
514.156	21.13
514.504	21.07
514.851	21
515.199	20.93
515.546	20.87
515.893	20.8
516.241	20.73
516.588	20.69
516.935	20.62
517.282	20.56
517.63	20.49
517.977	20.44
518.324	20.4
518.671	20.34
519.018	20.27
519.365	20.21
519.711	20.15
520.058	20.07
520.405	20
520.752	19.93
521.099	19.87
521.445	19.81
521.792	19.71
522.138	19.59
522.485	19.52
522.832	19.45
523.178	19.37
523.524	19.28
523.871	19.17
524.217	19.1
524.563	18.96
524.91	18.8
525.256	18.66
525.602	18.55
525.948	18.46
526.294	18.39
526.64	18.32
526.986	18.29
527.332	18.27
527.678	18.23
528.024	18.19
528.37	18.15
528.716	18.11
529.061	18.07
529.407	18.04
529.753	17.98
530.098	17.89
530.444	17.82
530.789	17.79
531.135	17.76
531.48	17.74
531.826	17.71
532.171	17.69
532.516	17.65
532.862	17.58
533.207	17.52
533.552	17.46
533.897	17.41
534.242	17.33
534.587	17.27
534.932	17.21
535.277	17.15
535.622	17.1
535.967	17.06
536.312	17.02
536.657	16.96
537.001	16.88
537.346	16.8
537.691	16.7
538.035	16.57
538.38	16.46
538.724	16.35
539.069	16.27
539.413	16.2
539.758	16.16
540.102	16.11
540.446	16.05
540.791	16.01
541.135	15.97
541.479	15.93
541.823	15.87
542.167	15.83
542.512	15.79
542.856	15.73
543.2	15.68
543.543	15.62
543.887	15.59
544.231	15.55
544.575	15.53
544.919	15.51
545.262	15.48
545.606	15.45
545.95	15.42
546.293	15.37
546.637	15.34
546.98	15.29
547.324	15.25
547.667	15.2
548.011	15.15
548.354	15.1
548.697	15.03
549.04	14.99
549.384	14.91
549.727	14.85
550.07	14.78
550.413	14.72
550.756	14.68
551.099	14.63
551.442	14.56
551.785	14.5
552.128	14.45
552.47	14.4
552.813	14.33
553.156	14.29
553.499	14.24
553.841	14.17
554.184	14.11
554.526	14.04
554.869	13.99
555.211	13.93
555.554	13.88
555.896	13.82
556.238	13.77
556.581	13.76
556.923	13.7
557.265	13.63
557.607	13.59
557.949	13.53
558.291	13.46
558.633	13.4
558.975	13.36
559.317	13.28
559.659	13.21
560.001	13.14
560.343	13.07
560.685	13.02
561.026	12.96
561.368	12.87
561.71	12.8
562.051	12.75
562.393	12.71
562.734	12.64
563.076	12.58
563.417	12.5
563.759	12.43
564.1	12.37
564.441	12.35
564.782	12.3
565.124	12.25
565.465	12.19
565.806	12.14
566.147	12.09
566.488	12.04
566.829	12
567.17	11.96
567.511	11.88
567.851	11.85
568.192	11.78
568.533	11.75
568.874	11.69
569.214	11.64
569.555	11.58
569.895	11.53
570.236	11.48
570.576	11.45
570.917	11.4
571.257	11.37
571.598	11.31
571.938	11.27
572.278	11.24
572.618	11.21
572.959	11.19
573.299	11.13
573.639	11.07
573.979	11.02
574.319	10.98
574.659	10.94
574.999	10.88
575.339	10.86
575.678	10.84
576.018	10.79
576.358	10.74
576.698	10.67
577.037	10.6
577.377	10.52
577.716	10.46
578.056	10.41
578.395	10.34
578.735	10.26
579.074	10.18
579.413	10.09
579.753	10.01
580.092	9.95
580.431	9.9
580.77	9.86
581.109	9.82
581.448	9.77
581.787	9.74
582.126	9.67
582.465	9.61
582.804	9.55
583.143	9.55
583.482	9.5
583.82	9.45
584.159	9.43
584.498	9.41
584.836	9.4
585.175	9.35
585.514	9.31
585.852	9.31
586.19	9.28
586.529	9.28
586.867	9.29
587.205	9.27
587.544	9.28
587.882	9.26
588.22	9.22
588.558	9.2
588.896	9.17
589.234	9.17
589.572	9.14
589.91	9.1
590.248	9.05
590.586	9.05
590.924	9.04
591.262	9.03
591.599	9.02
591.937	8.97
592.275	8.95
592.612	8.92
592.95	8.91
593.287	8.91
593.625	8.89
593.962	8.87
594.299	8.87
594.637	8.83
594.974	8.82
595.311	8.82
595.648	8.81
595.985	8.79
596.322	8.77
596.659	8.77
596.996	8.77
597.333	8.72
597.67	8.66
598.007	8.63
598.344	8.61
598.681	8.57
599.017	8.51
599.354	8.49
599.691	8.47
600.027	8.44
600.364	8.42
600.7	8.41
601.037	8.38
601.373	8.36
601.71	8.38
602.046	8.36
602.382	8.36
602.718	8.33
603.054	8.33
603.391	8.28
603.727	8.26
604.063	8.23
604.399	8.23
604.735	8.25
605.071	8.26
605.406	8.26
605.742	8.27
606.078	8.31
606.414	8.32
606.749	8.33
607.085	8.29
607.421	8.26
607.756	8.21
608.092	8.16
608.427	8.1
608.762	8
609.098	7.93
609.433	7.86
609.768	7.83
610.104	7.78
610.439	7.78
610.774	7.76
611.109	7.72
611.444	7.69
611.779	7.66
612.114	7.59
612.449	7.55
612.784	7.49
613.118	7.42
613.453	7.38
613.788	7.34
614.123	7.27
614.457	7.18
614.792	7.13
615.126	7.04
615.461	6.99
615.795	6.98
616.13	6.97
616.464	6.97
616.798	6.94
617.132	6.93
617.467	6.93
617.801	6.88
618.135	6.91
618.469	6.91
618.803	6.86
619.137	6.84
619.471	6.83
619.805	6.8
620.139	6.77
620.472	6.74
620.806	6.66
621.14	6.64
621.473	6.66
621.807	6.65
622.141	6.67
622.474	6.67
622.808	6.65
623.141	6.67
623.474	6.65
623.808	6.65
624.141	6.68
624.474	6.67
624.807	6.69
625.141	6.69
625.474	6.69
625.807	6.71
626.14	6.69
626.473	6.68
626.806	6.69
627.138	6.68
627.471	6.66
627.804	6.69
628.137	6.68
628.469	6.66
628.802	6.63
629.135	6.6
629.467	6.56
629.8	6.54
630.132	6.51
630.465	6.51
630.797	6.47
631.129	6.41
631.461	6.37
631.794	6.32
632.126	6.28
632.458	6.24
632.79	6.22
633.122	6.25
633.454	6.25
633.786	6.22
634.118	6.21
634.45	6.2
634.781	6.16
635.113	6.18
635.445	6.14
635.777	6.14
636.108	6.14
636.44	6.12
636.771	6.13
637.103	6.11
637.434	6.1
637.765	6.1
638.097	6.07
638.428	6.05
638.759	6.03
639.09	6
639.422	6
639.753	5.95
640.084	5.93
640.415	5.91
640.746	5.89
641.077	5.84
641.407	5.82
641.738	5.83
642.069	5.82
642.4	5.82
642.73	5.83
643.061	5.82
643.392	5.86
643.722	5.86
644.053	5.85
644.383	5.83
644.713	5.77
645.044	5.77
645.374	5.71
645.704	5.66
646.034	5.67
646.365	5.62
646.695	5.59
647.025	5.53
647.355	5.5
647.685	5.47
648.015	5.49
648.344	5.54
648.674	5.56
649.004	5.58
649.334	5.6
649.663	5.59
649.993	5.61
650.323	5.62
650.652	5.62
650.982	5.59
651.311	5.56
651.64	5.55
651.97	5.53
652.299	5.56
652.628	5.59
652.958	5.54
653.287	5.57
653.616	5.58
653.945	5.6
654.274	5.56
654.603	5.57
654.932	5.53
655.261	5.52
655.589	5.51
655.918	5.54
656.247	5.57
656.576	5.63
656.904	5.66
657.233	5.67
657.561	5.66
657.89	5.68
658.218	5.68
658.547	5.7
658.875	5.76
659.203	5.79
659.532	5.74
659.86	5.75
660.188	5.72
660.516	5.72
660.844	5.71
661.172	5.75
661.5	5.72
661.828	5.71
662.156	5.66
662.484	5.63
662.811	5.55
663.139	5.47
663.467	5.42
663.794	5.31
664.122	5.2
664.45	5.12
664.777	5.07
665.104	5.06
665.432	5
665.759	4.91
666.086	4.82
666.414	4.89
666.741	4.92
667.068	4.94
667.395	4.95
667.722	4.96
668.049	4.92
668.376	4.89
668.703	4.88
669.03	4.85
669.357	4.78
669.683	4.78
670.01	4.79
670.337	4.77
670.663	4.83
670.99	4.82
671.317	4.82
671.643	4.86
671.969	4.83
672.296	4.87
672.622	4.93
672.948	4.9
673.275	4.78
673.601	4.73
673.927	4.65
674.253	4.61
674.579	4.58
674.905	4.61
675.231	4.65
675.557	4.67
675.883	4.72
676.209	4.82
676.534	4.88
676.86	4.92
677.186	4.94
677.511	4.98
677.837	5.08
678.162	5.13
678.488	5.13
678.813	5.18
679.139	5.21
679.464	5.19
679.789	5.27
680.114	5.37
680.44	5.43
680.765	5.42
681.09	5.43
681.415	5.42
681.74	5.42
682.065	5.4
682.39	5.4
682.714	5.36
683.039	5.35
683.364	5.31
683.689	5.27
684.013	5.24
684.338	5.19
684.662	5.13
684.987	5.12
685.311	5.09
685.636	5.04
685.96	4.97
686.284	4.91
686.608	4.86
686.933	4.79
687.257	4.71
687.581	4.73
687.905	4.74
688.229	4.8
688.553	4.75
688.877	4.69
689.201	4.7
689.524	4.68
689.848	4.61
690.172	4.58
690.496	4.55
690.819	4.54
691.143	4.51
691.466	4.44
691.79	4.37
692.113	4.33
692.436	4.31
692.76	4.32
693.083	4.34
693.406	4.36
693.729	4.33
694.053	4.34
694.376	4.32
694.699	4.4
695.022	4.45
695.344	4.57
695.667	4.77
695.99	4.87
696.313	4.98
696.636	5.11
696.958	5.22
697.281	5.25
697.604	5.27
697.926	5.29
698.249	5.32
698.571	5.32
698.893	5.29
699.216	5.32
699.538	5.26
699.86	5.24
700.182	5.19
700.504	5.24
700.827	5.22
701.149	5.19
701.471	5.06
701.793	4.93
702.114	4.77
702.436	4.59
702.758	4.41
703.08	4.14
703.401	3.81
703.723	3.59
704.045	3.48
704.366	3.41
704.688	3.41
705.009	3.35
705.331	3.3
705.652	3.3
705.973	3.27
706.294	3.31
706.616	3.3
706.937	3.32
707.258	3.31
707.579	3.36
707.9	3.43
708.221	3.49
708.542	3.57
708.863	3.68
709.183	3.69
709.504	3.75
709.825	3.91
710.145	4.06
710.466	4.06
710.787	4.08
711.107	4.09
711.427	4
711.748	4
712.068	4.03
712.388	4.09
712.709	4.1
713.029	4.15
713.349	4.2
713.669	4.24
713.989	4.32
714.309	4.33
714.629	4.3
714.949	4.29
715.269	4.25
715.589	4.17
715.908	4.21
716.228	4.26
716.548	4.24
716.867	4.26
717.187	4.31
717.506	4.31
717.826	4.35
718.145	4.4
718.465	4.47
718.784	4.59
719.103	4.58
719.422	4.65
719.741	4.69
720.061	4.73
720.38	4.78
720.699	4.85
721.018	4.96
721.336	5.01
721.655	5.09
721.974	5.22
722.293	5.4
722.612	5.47
722.93	5.46
723.249	5.66
723.567	5.78
723.886	5.9
724.204	6.07
724.523	6.15
724.841	6.34
725.159	6.43
725.477	6.52
725.796	6.77
726.114	6.99
726.432	7.11
726.75	7.27
727.068	7.44
727.386	7.53
727.704	7.72
728.022	7.87
728.339	8.08
728.657	8.22
728.975	8.34
729.292	8.48
729.61	8.64
729.928	8.64
730.245	8.72
730.562	8.79
730.88	9
731.197	9.16
731.514	9.25
731.832	9.39
732.149	9.56
732.466	9.61
732.783	9.68
733.1	9.85
733.417	10.02
733.734	10.2
734.051	10.32
734.368	10.4
734.684	10.58
735.001	10.65
735.318	10.73
735.634	10.81
735.951	10.98
736.268	11.25
736.584	11.49
736.9	11.79
737.217	11.98
737.533	12.02
737.849	12.17
738.166	12.27
738.482	12.4
738.798	12.52
739.114	12.72
739.43	12.86
739.746	13.02
740.062	13.11
740.378	13.08
740.693	13.15
741.009	13.26
741.325	13.38
741.641	13.56
741.956	13.71
742.272	13.93
742.587	14.1
742.903	14.11
743.218	14.25
743.533	14.23
743.849	14.42
744.164	14.56
744.479	14.62
744.794	14.7
745.109	14.82
745.424	14.93
745.739	14.89
746.054	14.97
746.369	14.94
746.684	15.13
746.999	15.21
747.313	15.39
747.628	15.53
747.943	15.58
748.257	15.63
748.572	15.86
748.886	16.05
749.201	16.04
749.515	16.12
749.829	16.11
750.144	16.25
750.458	16.35
750.772	16.34
751.086	16.56
751.4	16.67
751.714	16.84
752.028	17.03
752.342	17.23
752.656	17.22
752.97	17.32
753.284	17.23
753.597	17.47
753.911	17.56
754.225	17.49
754.538	17.54
754.852	17.6
755.165	17.52
755.478	17.43
755.792	17.54
756.105	17.59
756.418	17.75
756.731	17.85
757.045	17.91
757.358	18.11
757.671	18.12
757.984	18.25
758.297	18.24
758.609	18.21
758.922	18.35
759.235	18.39
759.548	18.42
759.86	18.47
760.173	18.32
760.486	18.16
760.798	18.12
761.111	18.03
761.423	17.96
761.735	17.85
762.048	17.83
762.36	17.85
762.672	17.91
762.984	17.92
763.296	17.91
763.608	17.95
763.92	17.99
764.232	18.06
764.544	18.14
764.856	18.19
765.168	18.25
765.48	18.28
765.791	18.52
766.103	18.74
766.414	18.96
766.726	19.27
767.037	19.61
767.349	19.97
767.66	20.33
767.972	20.79
768.283	21.38
768.594	21.94
768.905	22.33
769.216	22.61
769.527	23.08
769.838	23.54
770.149	23.86
770.46	24.31
770.771	24.63
771.082	24.93
771.393	25.3
771.703	25.68
772.014	25.82
772.324	25.95
772.635	26.11
772.945	26.32
773.256	26.5
773.566	26.7
773.877	26.91
774.187	27.13
774.497	27.12
774.807	27.35
775.117	27.41
775.427	27.56
775.737	27.69
776.047	27.45
776.357	27.26
776.667	27.23
776.977	27.12
777.287	27.18
777.596	27.18
777.906	27.12
778.216	27.05
778.525	27.29
778.835	27.48
779.144	27.67
779.453	27.79
779.763	27.67
780.072	28.08
780.381	28.29
780.69	28.5
781	28.81
781.309	28.77
781.618	28.66
781.927	28.76
782.235	28.97
782.544	29.5
782.853	29.73
783.162	29.93
783.471	30.13
783.779	30.09
784.088	30.27
784.396	30.35
784.705	30.51
785.013	30.33
785.322	30.25
785.63	29.82
785.938	29.63
786.246	29.7
786.554	29.66
786.863	29.71
787.171	29.49
787.479	29.72
787.787	29.78
788.094	29.73
788.402	29.74
788.71	29.79
789.018	29.45
789.326	29.62
789.633	29.84
789.941	29.86
790.248	29.87
790.556	30.12
790.863	30.33
791.171	30.41
791.478	30.69
791.785	30.96
792.092	31.43
792.399	31.69
792.707	31.86
793.014	31.91
793.321	31.84
793.628	32.01
793.934	31.75
794.241	31.53
794.548	31.66
794.855	31.72
795.161	31.7
795.468	31.85
795.775	31.82
796.081	31.72
796.388	31.77
796.694	31.97
797	31.78
797.307	31.96
797.613	32.12
797.919	32.08
798.225	32.07
798.531	32.19
798.837	32.2
799.143	32.36
799.449	32.41
799.755	32.67
800.061	32.97
800.367	33.28
800.672	33.67
800.978	33.89
801.284	34.06
801.589	34.24
801.895	34.43
802.2	34.67
802.506	34.87
802.811	34.65
803.116	34.79
803.421	34.85
803.727	34.66
804.032	34.64
804.337	34.57
804.642	34.44
804.947	34.68
805.252	35.11
805.556	35.05
805.861	35.08
806.166	35.05
806.471	35.29
806.775	35.23
807.08	35.35
807.384	35.59
807.689	35.85
807.993	36.01
808.298	36.34
808.602	36.37
808.906	36.43
809.211	37.08
809.515	37.19
809.819	37.16
810.123	37.31
810.427	37.63
810.731	37.96
811.035	38.25
811.338	38.07
811.642	37.94
811.946	38.55
812.25	38.43
812.553	38.45
812.857	38.17
813.16	38.11
813.464	38.22
813.767	37.84
814.07	37.45
814.374	37.36
814.677	37.27
814.98	37.31
815.283	37.51
815.586	37.26
815.889	37.18
816.192	37.22
816.495	37.04
816.798	36.36
817.101	36.02
817.404	35.78
817.706	35.32
818.009	34.5
818.312	33.19
818.614	32.08
818.917	30.33
819.219	28.1
819.521	25.86
819.824	23.67
820.126	22.16
820.428	21.05
820.73	20.15
821.032	19.48
821.334	19.03
821.636	18.64
821.938	18.42
822.24	18.25
822.542	18.15
822.844	18.07
823.145	18.02
823.447	18
823.749	17.9
824.05	17.68
824.352	17.53
824.653	17.47
824.955	17.45
825.256	17.42
825.557	17.59
825.858	17.86
826.16	18.29
826.461	18.84
826.762	19.4
827.063	19.97
827.364	20.57
827.665	21.14
827.965	21.76
828.266	22.27
828.567	22.67
828.868	23.03
829.168	23.27
829.469	23.64
829.769	23.69
830.07	23.94
830.37	24.47
830.67	25.08
830.971	25.67
831.271	26.19
831.571	26.76
831.871	27.04
832.171	27.36
832.471	27.6
832.771	27.79
833.071	28.07
833.371	28.36
833.671	28.45
833.971	28.59
834.27	28.69
834.57	28.61
834.869	28.81
835.169	28.96
835.468	29.09
835.768	29.01
836.067	29.35
836.367	29.74
836.666	30.38
836.965	30.94
837.264	31.29
837.563	32.18
837.862	33.11
838.161	34.47
838.46	35.5
838.759	36.34
839.058	37.3
839.356	38.03
839.655	38.74
839.954	39.8
840.252	40.51
840.551	40.72
840.849	41.15
841.148	41.86
841.446	42.32
841.744	43.28
842.043	43.8
842.341	44.01
842.639	44.2
842.937	44.14
843.235	44.93
843.533	46.06
843.831	46.53
844.129	47.67
844.427	48.22
844.724	49.06
845.022	49.97
845.32	50.82
845.617	51.6
845.915	52.41
846.212	53.01
846.51	53.76
846.807	54.48
847.104	55.5
847.402	55.48
847.699	56.39
847.996	56.2
848.293	56.34
848.59	56.67
848.887	56.62
849.184	57.37
849.481	57.5
849.778	57.49
850.074	57.98
850.371	58.72
850.668	59.58
850.964	60.34
851.261	61.17
851.557	62.06
851.854	62.06
852.15	61.74
852.446	61.66
852.743	62.06
853.039	62.88
853.335	63.61
853.631	63.51
853.927	63.55
854.223	63.62
854.519	64
854.815	64.72
855.111	64.94
855.406	64.72
855.702	64.61
855.998	64.31
856.293	63.87
856.589	63.59
856.884	63.27
857.18	62.52
857.475	62.24
857.77	61.69
858.066	61.6
858.361	61.76
858.656	61.76
858.951	60.73
859.246	60.16
859.541	59.23
859.836	59.83
860.131	59.18
860.426	59.72
860.72	60.32
861.015	59.69
861.31	59.88
861.604	60.53
861.899	59.92
862.193	60.15
862.487	60.36
862.782	60.16
863.076	59.78
863.37	60.6
863.664	61.54
863.959	61.05
864.253	61.89
864.547	62.74
864.841	62.97
865.135	63.72
865.428	64.15
865.722	64.93
866.016	64.29
866.31	63.34
866.603	62.06
866.897	61.54
867.19	61.81
867.484	62.38
867.777	63.34
868.07	63.91
868.364	64.78
868.657	64.81
868.95	64.36
869.243	65.14
869.536	64.69
869.829	64.31
870.122	65.17
870.415	65.84
870.708	65.7
871	65
871.293	63.5
871.586	61.83
871.878	60.32
872.171	59.99
872.463	61.02
872.756	61.15
873.048	61.02
873.341	60.86
873.633	60.23
873.925	58.33
874.217	57.95
874.509	57
874.801	56.9
875.093	57.42
875.385	56.01
875.677	55.67
875.969	54.17
