Data from pcis_p_h3_p3_Reflection_4.txt Node
Date: Wed Jul 12 17:53:28 ART 2017
User: rodoncho
Spectrometer: USB2E3644
Trigger mode: 4
Integration Time (sec): 6.000000E-2
Scans to average: 10
Electric dark correction enabled: true
Nonlinearity correction enabled: false
Boxcar width: 10
XAxis mode: Wavelengths
Number of Pixels in Spectrum: 2048
>>>>>Begin Spectral Data<<<<<
178.315	46.46
178.696	58.33
179.076	82.27
179.457	143.94
179.838	160
180.218	-1633.33
180.599	-303.7
180.979	94.12
181.36	38.1
181.74	37.04
182.121	59.46
182.501	140.15
182.881	132.53
183.262	135.14
183.642	16.22
184.022	72.29
184.402	62.6
184.783	77.84
185.163	86.92
185.543	71.9
185.923	81.54
186.303	80.1
186.683	83.73
187.063	88
187.443	89.7
187.823	87.16
188.203	88.49
188.583	93.33
188.963	90.55
189.343	93.43
189.723	97.06
190.102	100.78
190.482	109.56
190.862	107.82
191.242	112.06
191.621	110.29
192.001	109.62
192.38	108.46
192.76	107.04
193.14	104.18
193.519	106.66
193.898	106.67
194.278	109.16
194.657	109.33
195.037	110.2
195.416	111.93
195.795	114.04
196.175	114
196.554	113.27
196.933	114.34
197.312	112.78
197.692	112.19
198.071	110.96
198.45	108.4
198.829	107.81
199.208	106.83
199.587	108.58
199.966	110.2
200.345	110.45
200.724	110.58
201.103	112.09
201.482	111.76
201.86	110.86
202.239	108.17
202.618	107.36
202.997	107.29
203.375	106.88
203.754	105.84
204.133	104.91
204.511	104.03
204.89	104.35
205.269	106
205.647	106.48
206.026	106.41
206.404	107
206.782	107.27
207.161	106.85
207.539	106.79
207.918	105.45
208.296	104.86
208.674	104.5
209.052	104.05
209.431	103.76
209.809	103
210.187	102.67
210.565	103.55
210.943	104.7
211.321	104.86
211.699	105.46
212.077	107.25
212.455	106.95
212.833	105.83
213.211	104.06
213.589	103.93
213.967	103.61
214.345	103.18
214.722	103.6
215.1	104.1
215.478	104.51
215.855	104.14
216.233	104.79
216.611	105.62
216.988	105.68
217.366	107.05
217.743	107.51
218.121	108.66
218.498	107.77
218.876	106.46
219.253	107.03
219.631	108.42
220.008	109.25
220.385	110.2
220.762	109.99
221.14	110.31
221.517	110.79
221.894	111.83
222.271	111.69
222.648	110.8
223.025	110.74
223.402	110.96
223.78	111.95
224.157	113.36
224.533	113.31
224.91	113.8
225.287	113.7
225.664	115.41
226.041	116.8
226.418	118.21
226.795	118.09
227.171	117.35
227.548	116.17
227.925	116.27
228.301	116.75
228.678	117.81
229.055	119.45
229.431	119.9
229.808	119.73
230.184	120.54
230.561	121.55
230.937	121.02
231.313	121.87
231.69	122.69
232.066	120.95
232.442	122.24
232.819	121.79
233.195	121.48
233.571	121.13
233.947	120.52
234.323	120.25
234.699	121.45
235.075	121.7
235.451	120.01
235.827	118.76
236.203	118.82
236.579	119.51
236.955	120
237.331	122.34
237.707	124.76
238.083	127.78
238.459	131.1
238.834	137.43
239.21	141.65
239.586	145.57
239.961	151.66
240.337	155.68
240.713	161.48
241.088	164.2
241.464	168.93
241.839	176.51
242.215	186.11
242.59	200.37
242.965	236.38
243.341	319.33
243.716	476.51
244.091	836.22
244.467	1818.29
244.842	24200
245.217	-2745.13
245.592	-1876.65
245.967	-1671.66
246.343	-1773.71
246.718	-2700.87
247.093	-3313.98
247.468	-2574.79
247.843	-2053.69
248.218	-1440.76
248.593	-880.69
248.967	-624.03
249.342	-567.72
249.717	-558.38
250.092	-581.89
250.467	-642.22
250.841	-889.74
251.216	-3795.06
251.591	1767.23
251.965	808.14
252.34	579.67
252.714	493.7
253.089	419.05
253.463	406.97
253.838	413.15
254.212	439.52
254.587	501.98
254.961	625.33
255.335	1008.56
255.71	-29763.64
256.084	-671.22
256.458	-336.39
256.832	-222.37
257.206	-182.65
257.581	-163.66
257.955	-151.42
258.329	-142.95
258.703	-134.29
259.077	-124.23
259.451	-117.63
259.825	-111.14
260.199	-105.22
260.572	-101.21
260.946	-95.72
261.32	-93.61
261.694	-91.22
262.068	-90.07
262.441	-89.19
262.815	-88.35
263.189	-89.46
263.562	-94.7
263.936	-107.81
264.309	-128.77
264.683	-154.64
265.056	-172.9
265.43	-185.28
265.803	-186.73
266.176	-180.71
266.55	-180.65
266.923	-180.65
267.296	-173.12
267.67	-162.4
268.043	-152.04
268.416	-138.67
268.789	-125.54
269.162	-111.04
269.535	-103.37
269.908	-97.79
270.281	-93.86
270.654	-93.53
271.027	-95.6
271.4	-97.21
271.773	-98
272.146	-97.88
272.519	-96.03
272.891	-91.95
273.264	-89.27
273.637	-86.96
274.01	-88.37
274.382	-87.64
274.755	-85.29
275.127	-84.46
275.5	-84.86
275.872	-84.36
276.245	-85.05
276.617	-87.61
276.99	-92.03
277.362	-93.69
277.734	-93.72
278.107	-92.2
278.479	-87.98
278.851	-83.92
279.223	-79.77
279.596	-76.98
279.968	-75.43
280.34	-74.9
280.712	-72.8
281.084	-68.66
281.456	-63.26
281.828	-58.15
282.2	-53.72
282.572	-49.82
282.944	-46.99
283.315	-45.64
283.687	-45.14
284.059	-44.52
284.431	-43.33
284.802	-42.97
285.174	-41.87
285.546	-40.88
285.917	-40.7
286.289	-39.63
286.66	-38.29
287.032	-38
287.403	-37.29
287.775	-36.93
288.146	-36.46
288.518	-36.41
288.889	-37.18
289.26	-38.66
289.632	-39.67
290.003	-40.69
290.374	-42.49
290.745	-43.82
291.116	-43.34
291.487	-42.24
291.858	-41.62
292.229	-41.21
292.6	-39.37
292.971	-38.38
293.342	-36.42
293.713	-34.79
294.084	-34.42
294.455	-33.93
294.826	-33.31
295.196	-33.52
295.567	-33.16
295.938	-32.74
296.308	-32.96
296.679	-31.85
297.05	-30.82
297.42	-30.02
297.791	-29.5
298.161	-29.07
298.532	-28.25
298.902	-27.96
299.272	-27.38
299.643	-26.56
300.013	-26.16
300.383	-26.36
300.754	-26.21
301.124	-26.75
301.494	-26.8
301.864	-26.36
302.234	-26.58
302.604	-26.86
302.974	-26.34
303.344	-26.08
303.714	-26.17
304.084	-25.31
304.454	-25.32
304.824	-24.71
305.194	-24.12
305.563	-23.67
305.933	-22.32
306.303	-21.19
306.673	-20.34
307.042	-19.52
307.412	-18.81
307.781	-17.87
308.151	-17.06
308.521	-16.57
308.89	-16.33
309.259	-16.1
309.629	-15.88
309.998	-15.35
310.368	-15.16
310.737	-15.05
311.106	-14.82
311.475	-14.32
311.845	-14.33
312.214	-13.84
312.583	-13.44
312.952	-13.02
313.321	-12.37
313.69	-12.4
314.059	-12.87
314.428	-13.12
314.797	-13.47
315.166	-14.19
315.535	-14.87
315.904	-15.16
316.272	-15.51
316.641	-15.41
317.01	-15.4
317.379	-14.98
317.747	-15
318.116	-14.53
318.484	-14.33
318.853	-14
319.221	-13.85
319.59	-13.23
319.958	-13.12
320.327	-13.1
320.695	-12.89
321.063	-12.95
321.432	-12.46
321.8	-11.93
322.168	-11.06
322.536	-10.5
322.905	-9.39
323.273	-8.61
323.641	-8.19
324.009	-7.73
324.377	-7.19
324.745	-7.01
325.113	-7.07
325.481	-6.61
325.849	-6.04
326.216	-5.47
326.584	-5.12
326.952	-4.78
327.32	-4.56
327.687	-4.22
328.055	-4.14
328.423	-4.12
328.79	-3.96
329.158	-4.08
329.525	-3.62
329.893	-3.46
330.26	-3.22
330.628	-3.28
330.995	-2.99
331.362	-2.65
331.73	-2.22
332.097	-2.02
332.464	-1.6
332.831	-1.19
333.199	-0.9
333.566	-0.85
333.933	-0.75
334.3	-0.53
334.667	-0.21
335.034	0.05
335.401	0.14
335.768	0.29
336.135	0.71
336.502	0.97
336.868	1.4
337.235	1.54
337.602	1.74
337.969	2.01
338.335	2.38
338.702	2.58
339.069	2.73
339.435	2.85
339.802	3.01
340.168	3.25
340.535	3.44
340.901	3.49
341.267	3.71
341.634	3.89
342	4.17
342.366	4.41
342.733	4.62
343.099	4.95
343.465	5.19
343.831	5.31
344.197	5.53
344.563	5.53
344.929	5.58
345.295	5.76
345.661	5.9
346.027	6.02
346.393	6.05
346.759	6.1
347.125	6.11
347.491	6.12
347.856	6.12
348.222	6.12
348.588	6.31
348.953	6.26
349.319	6.29
349.684	6.19
350.05	6.18
350.415	6.27
350.781	6.4
351.146	6.51
351.512	6.6
351.877	6.66
352.242	6.79
352.608	6.87
352.973	6.85
353.338	6.84
353.703	6.84
354.068	7.07
354.433	7.22
354.798	7.42
355.164	7.58
355.528	7.65
355.893	7.75
356.258	7.77
356.623	7.87
356.988	8.05
357.353	8.32
357.718	8.48
358.082	8.62
358.447	8.65
358.812	8.72
359.176	8.79
359.541	8.81
359.905	8.97
360.27	9.1
360.634	9.26
360.999	9.36
361.363	9.5
361.728	9.49
362.092	9.57
362.456	9.6
362.821	9.66
363.185	9.76
363.549	9.89
363.913	9.99
364.277	10.09
364.641	10.14
365.005	10.16
365.369	10.21
365.733	10.23
366.097	10.33
366.461	10.4
366.825	10.43
367.189	10.59
367.553	10.67
367.916	10.79
368.28	10.82
368.644	11.04
369.007	11.15
369.371	11.26
369.734	11.34
370.098	11.5
370.461	11.61
370.825	11.72
371.188	11.82
371.552	11.94
371.915	12.06
372.278	12.19
372.642	12.33
373.005	12.45
373.368	12.5
373.731	12.54
374.094	12.67
374.457	12.73
374.82	12.73
375.183	12.75
375.546	12.78
375.909	12.91
376.272	12.83
376.635	12.78
376.998	12.77
377.361	12.78
377.723	12.78
378.086	12.81
378.449	12.82
378.811	12.85
379.174	12.83
379.537	12.85
379.899	12.88
380.262	12.92
380.624	12.88
380.987	12.89
381.349	12.92
381.711	12.95
382.074	13.05
382.436	13.16
382.798	13.18
383.16	13.14
383.522	13.15
383.884	13.25
384.247	13.36
384.609	13.44
384.971	13.52
385.333	13.58
385.695	13.6
386.056	13.61
386.418	13.57
386.78	13.6
387.142	13.65
387.504	13.66
387.865	13.59
388.227	13.61
388.589	13.62
388.95	13.62
389.312	13.59
389.673	13.54
390.035	13.52
390.396	13.52
390.758	13.52
391.119	13.47
391.48	13.42
391.842	13.36
392.203	13.27
392.564	13.2
392.925	13.15
393.286	13.13
393.648	13.13
394.009	13.1
394.37	13.06
394.731	12.95
395.092	12.85
395.452	12.86
395.813	12.87
396.174	12.85
396.535	12.82
396.896	12.77
397.257	12.77
397.617	12.74
397.978	12.71
398.338	12.74
398.699	12.76
399.06	12.71
399.42	12.66
399.781	12.63
400.141	12.57
400.501	12.53
400.862	12.48
401.222	12.47
401.582	12.43
401.943	12.43
402.303	12.44
402.663	12.46
403.023	12.4
403.383	12.34
403.743	12.31
404.103	12.31
404.463	12.34
404.823	12.32
405.183	12.25
405.543	12.26
405.903	12.23
406.262	12.18
406.622	12.21
406.982	12.21
407.342	12.26
407.701	12.29
408.061	12.29
408.42	12.28
408.78	12.24
409.139	12.27
409.499	12.26
409.858	12.28
410.217	12.27
410.577	12.25
410.936	12.26
411.295	12.27
411.655	12.23
412.014	12.18
412.373	12.13
412.732	12.09
413.091	12.04
413.45	11.98
413.809	11.94
414.168	11.84
414.527	11.75
414.886	11.6
415.245	11.52
415.603	11.42
415.962	11.32
416.321	11.24
416.679	11.12
417.038	11.01
417.397	10.91
417.755	10.82
418.114	10.73
418.472	10.65
418.831	10.57
419.189	10.51
419.547	10.43
419.906	10.37
420.264	10.3
420.622	10.22
420.981	10.15
421.339	10.08
421.697	10.02
422.055	9.99
422.413	9.98
422.771	9.94
423.129	9.91
423.487	9.9
423.845	9.88
424.203	9.88
424.56	9.88
424.918	9.87
425.276	9.88
425.634	9.91
425.991	9.91
426.349	9.91
426.707	9.92
427.064	9.93
427.422	9.94
427.779	9.98
428.137	10.03
428.494	10.06
428.851	10.12
429.209	10.17
429.566	10.17
429.923	10.17
430.28	10.19
430.637	10.22
430.995	10.21
431.352	10.23
431.709	10.24
432.066	10.26
432.423	10.28
432.78	10.27
433.137	10.27
433.493	10.28
433.85	10.31
434.207	10.29
434.564	10.3
434.92	10.33
435.277	10.31
435.634	10.3
435.99	10.32
436.347	10.32
436.703	10.33
437.06	10.34
437.416	10.36
437.773	10.37
438.129	10.35
438.485	10.35
438.841	10.35
439.198	10.35
439.554	10.35
439.91	10.33
440.266	10.33
440.622	10.32
440.978	10.3
441.334	10.26
441.69	10.24
442.046	10.2
442.402	10.12
442.758	10.07
443.113	10.01
443.469	9.94
443.825	9.88
444.181	9.84
444.536	9.81
444.892	9.77
445.247	9.71
445.603	9.69
445.958	9.66
446.314	9.63
446.669	9.59
447.025	9.56
447.38	9.52
447.735	9.47
448.09	9.45
448.446	9.41
448.801	9.38
449.156	9.37
449.511	9.34
449.866	9.35
450.221	9.34
450.576	9.35
450.931	9.37
451.286	9.37
451.641	9.38
451.995	9.36
452.35	9.36
452.705	9.39
453.06	9.41
453.414	9.44
453.769	9.44
454.123	9.47
454.478	9.47
454.832	9.49
455.187	9.5
455.541	9.5
455.896	9.51
456.25	9.52
456.604	9.53
456.958	9.55
457.313	9.54
457.667	9.57
458.021	9.6
458.375	9.63
458.729	9.67
459.083	9.71
459.437	9.76
459.791	9.81
460.145	9.86
460.499	9.91
460.852	9.95
461.206	10.02
461.56	10.07
461.914	10.13
462.267	10.2
462.621	10.29
462.974	10.38
463.328	10.51
463.681	10.64
464.035	10.78
464.388	10.9
464.742	11.05
465.095	11.17
465.448	11.28
465.801	11.39
466.155	11.49
466.508	11.59
466.861	11.65
467.214	11.75
467.567	11.81
467.92	11.87
468.273	11.92
468.626	11.99
468.979	12.04
469.332	12.08
469.684	12.12
470.037	12.16
470.39	12.19
470.743	12.22
471.095	12.25
471.448	12.28
471.8	12.3
472.153	12.32
472.505	12.32
472.858	12.32
473.21	12.29
473.562	12.26
473.915	12.22
474.267	12.18
474.619	12.11
474.971	12.05
475.324	11.97
475.676	11.91
476.028	11.82
476.38	11.76
476.732	11.7
477.084	11.61
477.436	11.52
477.787	11.43
478.139	11.34
478.491	11.24
478.843	11.12
479.195	10.99
479.546	10.81
479.898	10.63
480.249	10.44
480.601	10.29
480.952	10.16
481.304	10.06
481.655	10
482.007	9.94
482.358	9.9
482.709	9.88
483.061	9.85
483.412	9.82
483.763	9.79
484.114	9.77
484.465	9.75
484.816	9.74
485.167	9.74
485.518	9.74
485.869	9.74
486.22	9.76
486.571	9.78
486.922	9.82
487.272	9.86
487.623	9.93
487.974	10.02
488.324	10.15
488.675	10.26
489.025	10.35
489.376	10.45
489.726	10.55
490.077	10.63
490.427	10.73
490.778	10.84
491.128	10.98
491.478	11.15
491.828	11.33
492.179	11.52
492.529	11.7
492.879	11.89
493.229	12.09
493.579	12.29
493.929	12.47
494.279	12.65
494.629	12.86
494.979	13.12
495.328	13.41
495.678	13.72
496.028	14.04
496.378	14.35
496.727	14.64
497.077	14.92
497.426	15.2
497.776	15.44
498.125	15.69
498.475	15.93
498.824	16.17
499.174	16.38
499.523	16.62
499.872	16.88
500.221	17.12
500.571	17.36
500.92	17.62
501.269	17.87
501.618	18.13
501.967	18.37
502.316	18.6
502.665	18.84
503.014	19.06
503.363	19.29
503.711	19.49
504.06	19.68
504.409	19.86
504.758	20.04
505.106	20.21
505.455	20.38
505.803	20.51
506.152	20.65
506.5	20.79
506.849	20.91
507.197	21.03
507.546	21.17
507.894	21.3
508.242	21.41
508.59	21.52
508.939	21.61
509.287	21.73
509.635	21.83
509.983	21.92
510.331	22.01
510.679	22.09
511.027	22.18
511.375	22.25
511.723	22.31
512.07	22.4
512.418	22.48
512.766	22.57
513.114	22.67
513.461	22.75
513.809	22.83
514.156	22.88
514.504	22.95
514.851	23
515.199	23.04
515.546	23.1
515.893	23.16
516.241	23.22
516.588	23.24
516.935	23.26
517.282	23.31
517.63	23.31
517.977	23.34
518.324	23.38
518.671	23.42
519.018	23.48
519.365	23.5
519.711	23.54
520.058	23.54
520.405	23.56
520.752	23.57
521.099	23.6
521.445	23.64
521.792	23.64
522.138	23.66
522.485	23.69
522.832	23.73
523.178	23.75
523.524	23.79
523.871	23.82
524.217	23.87
524.563	23.91
524.91	23.95
525.256	23.97
525.602	24
525.948	24.01
526.294	24.02
526.64	24.03
526.986	24.04
527.332	24.06
527.678	24.06
528.024	24.08
528.37	24.1
528.716	24.11
529.061	24.14
529.407	24.17
529.753	24.21
530.098	24.23
530.444	24.24
530.789	24.25
531.135	24.26
531.48	24.28
531.826	24.3
532.171	24.34
532.516	24.37
532.862	24.39
533.207	24.44
533.552	24.47
533.897	24.49
534.242	24.5
534.587	24.52
534.932	24.55
535.277	24.55
535.622	24.57
535.967	24.59
536.312	24.63
536.657	24.64
537.001	24.65
537.346	24.67
537.691	24.67
538.035	24.66
538.38	24.65
538.724	24.64
539.069	24.61
539.413	24.61
539.758	24.61
540.102	24.62
540.446	24.61
540.791	24.61
541.135	24.61
541.479	24.63
541.823	24.63
542.167	24.62
542.512	24.61
542.856	24.58
543.2	24.57
543.543	24.55
543.887	24.54
544.231	24.52
544.575	24.51
544.919	24.5
545.262	24.51
545.606	24.53
545.95	24.55
546.293	24.55
546.637	24.53
546.98	24.5
547.324	24.44
547.667	24.43
548.011	24.39
548.354	24.36
548.697	24.32
549.04	24.32
549.384	24.3
549.727	24.29
550.07	24.3
550.413	24.29
550.756	24.28
551.099	24.27
551.442	24.28
551.785	24.27
552.128	24.26
552.47	24.25
552.813	24.21
553.156	24.18
553.499	24.16
553.841	24.14
554.184	24.16
554.526	24.17
554.869	24.14
555.211	24.14
555.554	24.15
555.896	24.12
556.238	24.1
556.581	24.06
556.923	24.03
557.265	23.99
557.607	23.96
557.949	23.9
558.291	23.87
558.633	23.83
558.975	23.8
559.317	23.79
559.659	23.78
560.001	23.75
560.343	23.67
560.685	23.66
561.026	23.63
561.368	23.59
561.71	23.54
562.051	23.51
562.393	23.47
562.734	23.41
563.076	23.37
563.417	23.3
563.759	23.29
564.1	23.24
564.441	23.2
564.782	23.13
565.124	23.12
565.465	23.07
565.806	23.02
566.147	22.96
566.488	22.9
566.829	22.83
567.17	22.75
567.511	22.76
567.851	22.69
568.192	22.63
568.533	22.56
568.874	22.51
569.214	22.49
569.555	22.43
569.895	22.36
570.236	22.3
570.576	22.23
570.917	22.18
571.257	22.11
571.598	22.05
571.938	22.03
572.278	22
572.618	21.96
572.959	21.91
573.299	21.85
573.639	21.8
573.979	21.75
574.319	21.71
574.659	21.65
574.999	21.58
575.339	21.55
575.678	21.5
576.018	21.44
576.358	21.35
576.698	21.28
577.037	21.23
577.377	21.18
577.716	21.12
578.056	21.05
578.395	20.98
578.735	20.94
579.074	20.84
579.413	20.69
579.753	20.61
580.092	20.53
580.431	20.48
580.77	20.41
581.109	20.38
581.448	20.33
581.787	20.27
582.126	20.21
582.465	20.12
582.804	20.07
583.143	20
583.482	19.92
583.82	19.84
584.159	19.77
584.498	19.68
584.836	19.64
585.175	19.57
585.514	19.52
585.852	19.47
586.19	19.44
586.529	19.42
586.867	19.35
587.205	19.35
587.544	19.29
587.882	19.23
588.22	19.16
588.558	19.11
588.896	19.02
589.234	18.99
589.572	18.96
589.91	18.88
590.248	18.84
590.586	18.81
590.924	18.75
591.262	18.72
591.599	18.71
591.937	18.67
592.275	18.6
592.612	18.54
592.95	18.5
593.287	18.46
593.625	18.43
593.962	18.4
594.299	18.32
594.637	18.3
594.974	18.27
595.311	18.2
595.648	18.15
595.985	18.12
596.322	18.08
596.659	18.03
596.996	18.01
597.333	17.98
597.67	17.93
598.007	17.89
598.344	17.81
598.681	17.73
599.017	17.64
599.354	17.59
599.691	17.56
600.027	17.51
600.364	17.45
600.7	17.38
601.037	17.32
601.373	17.3
601.71	17.24
602.046	17.2
602.382	17.2
602.718	17.17
603.054	17.13
603.391	17.07
603.727	17.03
604.063	16.99
604.399	16.93
604.735	16.89
605.071	16.89
605.406	16.88
605.742	16.88
606.078	16.87
606.414	16.88
606.749	16.84
607.085	16.79
607.421	16.73
607.756	16.69
608.092	16.62
608.427	16.52
608.762	16.45
609.098	16.34
609.433	16.24
609.768	16.16
610.104	16.13
610.439	16.08
610.774	16.01
611.109	15.94
611.444	15.89
611.779	15.86
612.114	15.76
612.449	15.67
612.784	15.57
613.118	15.47
613.453	15.33
613.788	15.22
614.123	15.12
614.457	15.07
614.792	14.97
615.126	14.88
615.461	14.8
615.795	14.7
616.13	14.68
616.464	14.59
616.798	14.56
617.132	14.51
617.467	14.46
617.801	14.43
618.135	14.4
618.469	14.34
618.803	14.26
619.137	14.23
619.471	14.22
619.805	14.17
620.139	14.12
620.472	14.1
620.806	14.06
621.14	14
621.473	13.94
621.807	13.88
622.141	13.84
622.474	13.79
622.808	13.79
623.141	13.74
623.474	13.74
623.808	13.72
624.141	13.72
624.474	13.73
624.807	13.73
625.141	13.72
625.474	13.7
625.807	13.68
626.14	13.69
626.473	13.64
626.806	13.63
627.138	13.67
627.471	13.63
627.804	13.61
628.137	13.61
628.469	13.57
628.802	13.54
629.135	13.51
629.467	13.51
629.8	13.47
630.132	13.47
630.465	13.46
630.797	13.39
631.129	13.32
631.461	13.25
631.794	13.19
632.126	13.13
632.458	13.11
632.79	13.06
633.122	13.03
633.454	13.02
633.786	12.95
634.118	12.88
634.45	12.89
634.781	12.85
635.113	12.84
635.445	12.82
635.777	12.79
636.108	12.76
636.44	12.74
636.771	12.68
637.103	12.6
637.434	12.55
637.765	12.53
638.097	12.49
638.428	12.41
638.759	12.37
639.09	12.31
639.422	12.25
639.753	12.23
640.084	12.17
640.415	12.15
640.746	12.13
641.077	12.06
641.407	11.99
641.738	11.94
642.069	11.88
642.4	11.83
642.73	11.8
643.061	11.77
643.392	11.73
643.722	11.76
644.053	11.75
644.383	11.74
644.713	11.72
645.044	11.66
645.374	11.64
645.704	11.58
646.034	11.58
646.365	11.54
646.695	11.49
647.025	11.46
647.355	11.41
647.685	11.43
648.015	11.47
648.344	11.45
648.674	11.46
649.004	11.45
649.334	11.47
649.663	11.47
649.993	11.45
650.323	11.45
650.652	11.38
650.982	11.38
651.311	11.32
651.64	11.26
651.97	11.27
652.299	11.27
652.628	11.29
652.958	11.27
653.287	11.27
653.616	11.21
653.945	11.2
654.274	11.17
654.603	11.11
654.932	11.05
655.261	11.08
655.589	11.05
655.918	11.08
656.247	11.1
656.576	11.13
656.904	11.16
657.233	11.17
657.561	11.18
657.89	11.16
658.218	11.14
658.547	11.19
658.875	11.2
659.203	11.23
659.532	11.23
659.86	11.22
660.188	11.22
660.516	11.25
660.844	11.23
661.172	11.26
661.5	11.25
661.828	11.22
662.156	11.13
662.484	11.04
662.811	10.95
663.139	10.9
663.467	10.81
663.794	10.74
664.122	10.66
664.45	10.6
664.777	10.53
665.104	10.54
665.432	10.46
665.759	10.38
666.086	10.3
666.414	10.26
666.741	10.25
667.068	10.21
667.395	10.19
667.722	10.19
668.049	10.12
668.376	10.06
668.703	10.08
669.03	10.13
669.357	10.16
669.683	10.16
670.01	10.14
670.337	10.17
670.663	10.14
670.99	10.12
671.317	10.12
671.643	10.16
671.969	10.18
672.296	10.16
672.622	10.14
672.948	10.1
673.275	10.01
673.601	9.95
673.927	9.97
674.253	10
674.579	9.95
674.905	9.95
675.231	10
675.557	9.94
675.883	9.91
676.209	9.92
676.534	9.99
676.86	10.06
677.186	10.09
677.511	10.18
677.837	10.15
678.162	10.23
678.488	10.23
678.813	10.21
679.139	10.27
679.464	10.29
679.789	10.34
680.114	10.39
680.44	10.37
680.765	10.35
681.09	10.31
681.415	10.3
681.74	10.32
682.065	10.33
682.39	10.33
682.714	10.3
683.039	10.3
683.364	10.25
683.689	10.14
684.013	10.02
684.338	9.96
684.662	10.01
684.987	9.96
685.311	9.91
685.636	9.88
685.96	9.82
686.284	9.74
686.608	9.71
686.933	9.74
687.257	9.79
687.581	9.78
687.905	9.81
688.229	9.85
688.553	9.83
688.877	9.83
689.201	9.82
689.524	9.77
689.848	9.71
690.172	9.66
690.496	9.74
690.819	9.76
691.143	9.73
691.466	9.71
691.79	9.71
692.113	9.67
692.436	9.64
692.76	9.62
693.083	9.62
693.406	9.61
693.729	9.53
694.053	9.54
694.376	9.57
694.699	9.59
695.022	9.66
695.344	9.77
695.667	9.86
695.99	9.94
696.313	10.09
696.636	10.23
696.958	10.28
697.281	10.24
697.604	10.27
697.926	10.29
698.249	10.31
698.571	10.3
698.893	10.3
699.216	10.27
699.538	10.27
699.86	10.29
700.182	10.22
700.504	10.25
700.827	10.25
701.149	10.23
701.471	10.2
701.793	10.07
702.114	9.92
702.436	9.77
702.758	9.6
703.08	9.41
703.401	9.17
703.723	9.02
704.045	8.88
704.366	8.79
704.688	8.69
705.009	8.6
705.331	8.51
705.652	8.53
705.973	8.53
706.294	8.53
706.616	8.59
706.937	8.62
707.258	8.58
707.579	8.56
707.9	8.65
708.221	8.63
708.542	8.73
708.863	8.8
709.183	8.78
709.504	8.8
709.825	8.77
710.145	8.86
710.466	8.94
710.787	9
711.107	9.01
711.427	9.01
711.748	8.97
712.068	8.99
712.388	9.02
712.709	9.08
713.029	9.14
713.349	9.04
713.669	9.1
713.989	9.18
714.309	9.22
714.629	9.16
714.949	9.11
715.269	9.06
715.589	9.05
715.908	9.11
716.228	9.13
716.548	9.2
716.867	9.2
717.187	9.17
717.506	9.19
717.826	9.16
718.145	9.17
718.465	9.28
718.784	9.36
719.103	9.34
719.422	9.38
719.741	9.39
720.061	9.5
720.38	9.55
720.699	9.57
721.018	9.51
721.336	9.5
721.655	9.63
721.974	9.73
722.293	9.78
722.612	9.86
722.93	10.03
723.249	10.22
723.567	10.44
723.886	10.57
724.204	10.67
724.523	10.82
724.841	11.1
725.159	11.29
725.477	11.41
725.796	11.62
726.114	11.75
726.432	11.85
726.75	11.97
727.068	12.14
727.386	12.25
727.704	12.5
728.022	12.74
728.339	12.9
728.657	12.99
728.975	13.13
729.292	13.29
729.61	13.44
729.928	13.53
730.245	13.52
730.562	13.65
730.88	13.8
731.197	13.96
731.514	13.99
731.832	14.08
732.149	14.19
732.466	14.23
732.783	14.31
733.1	14.43
733.417	14.54
733.734	14.58
734.051	14.62
734.368	14.73
734.684	14.84
735.001	14.89
735.318	14.99
735.634	15.09
735.951	15.27
736.268	15.45
736.584	15.67
736.9	15.82
737.217	15.89
737.533	15.92
737.849	16.11
738.166	16.23
738.482	16.32
738.798	16.41
739.114	16.65
739.43	16.79
739.746	16.97
740.062	17.18
740.378	17.36
740.693	17.6
741.009	17.71
741.325	17.75
741.641	17.88
741.956	18.11
742.272	18.24
742.587	18.36
742.903	18.42
743.218	18.5
743.533	18.53
743.849	18.62
744.164	18.77
744.479	18.77
744.794	18.86
745.109	18.89
745.424	18.93
745.739	18.9
746.054	19
746.369	19.04
746.684	19
746.999	19.05
747.313	19.03
747.628	19.02
747.943	19.21
748.257	19.36
748.572	19.35
748.886	19.44
749.201	19.38
749.515	19.36
749.829	19.34
750.144	19.64
750.458	19.82
750.772	20.02
751.086	20.11
751.4	20.21
751.714	20.37
752.028	20.45
752.342	20.46
752.656	20.61
752.97	20.63
753.284	20.9
753.597	21.09
753.911	21.3
754.225	21.41
754.538	21.54
754.852	21.64
755.165	21.77
755.478	21.84
755.792	21.93
756.105	22.08
756.418	22.15
756.731	22.05
757.045	22.29
757.358	22.39
757.671	22.52
757.984	22.65
758.297	22.76
758.609	22.93
758.922	23.14
759.235	22.96
759.548	22.98
759.86	22.75
760.173	22.59
760.486	22.36
760.798	22.27
761.111	22.02
761.423	21.77
761.735	21.67
762.048	21.62
762.36	21.63
762.672	21.64
762.984	21.76
763.296	21.78
763.608	21.71
763.92	21.72
764.232	21.76
764.544	21.79
764.856	21.84
765.168	21.9
765.48	21.97
765.791	22.23
766.103	22.42
766.414	22.61
766.726	22.84
767.037	23.12
767.349	23.36
767.66	23.79
767.972	24.3
768.283	24.82
768.594	25.27
768.905	25.56
769.216	25.8
769.527	26.21
769.838	26.73
770.149	27.07
770.46	27.36
770.771	27.57
771.082	27.85
771.393	28.07
771.703	28.22
772.014	28.32
772.324	28.53
772.635	28.77
772.945	28.95
773.256	29.2
773.566	29.39
773.877	29.78
774.187	29.85
774.497	29.8
774.807	29.72
775.117	29.67
775.427	29.95
775.737	30.07
776.047	29.96
776.357	29.87
776.667	30.04
776.977	29.98
777.287	30.05
777.596	30.12
777.906	30.12
778.216	30.31
778.525	30.37
778.835	30.52
779.144	30.76
779.453	30.9
779.763	30.88
780.072	31.25
780.381	31.28
780.69	31.23
781	31.48
781.309	31.84
781.618	32.12
781.927	32.3
782.235	32.44
782.544	32.57
782.853	32.87
783.162	32.67
783.471	32.88
783.779	32.93
784.088	33
784.396	33.17
784.705	33.03
785.013	32.91
785.322	32.57
785.63	32.24
785.938	32.3
786.246	32.27
786.554	31.99
786.863	32.08
787.171	32.22
787.479	32.34
787.787	32.21
788.094	32.06
788.402	32.05
788.71	32.08
789.018	31.93
789.326	31.89
789.633	32.07
789.941	32.09
790.248	32.38
790.556	32.49
790.863	32.46
791.171	32.72
791.478	32.88
791.785	33.2
792.092	33.41
792.399	33.37
792.707	33.7
793.014	33.96
793.321	33.82
793.628	33.93
793.934	33.82
794.241	33.59
794.548	33.69
794.855	33.64
795.161	33.51
795.468	33.84
795.775	33.91
796.081	33.84
796.388	33.88
796.694	33.73
797	33.63
797.307	33.85
797.613	33.96
797.919	34.4
798.225	34.47
798.531	34.54
798.837	34.77
799.143	34.66
799.449	34.73
799.755	35.07
800.061	35.33
800.367	35.94
800.672	36.38
800.978	36.76
801.284	36.97
801.589	37.35
801.895	37.36
802.2	37.26
802.506	37.44
802.811	37.27
803.116	37.15
803.421	37.21
803.727	37.16
804.032	37.1
804.337	37.05
804.642	36.92
804.947	37.09
805.252	37.09
805.556	37.49
805.861	37.54
806.166	37.53
806.471	37.66
806.775	37.48
807.08	37.69
807.384	37.7
807.689	37.62
807.993	37.62
808.298	37.66
808.602	37.67
808.906	38.01
809.211	38.47
809.515	38.7
809.819	38.92
810.123	39.12
810.427	39.03
810.731	38.93
811.035	39.24
811.338	39.58
811.642	39.88
811.946	39.77
812.25	39.78
812.553	39.78
812.857	39.73
813.16	39.81
813.464	39.78
813.767	39.95
814.07	40.09
814.374	39.96
814.677	39.8
814.98	40.07
815.283	39.72
815.586	40.22
815.889	40.35
816.192	39.96
816.495	39.92
816.798	39.81
817.101	39.63
817.404	39.16
817.706	38.39
818.009	37.5
818.312	36.51
818.614	35.44
818.917	33.86
819.219	31.67
819.521	29.56
819.824	27.7
820.126	26.42
820.428	25.51
820.73	24.81
821.032	24.38
821.334	24
821.636	23.73
821.938	23.43
822.24	23.32
822.542	23.28
822.844	23.19
823.145	23.16
823.447	23.05
823.749	22.96
824.05	22.79
824.352	22.72
824.653	22.69
824.955	22.63
825.256	22.64
825.557	22.77
825.858	23.04
826.16	23.4
826.461	23.71
826.762	24.08
827.063	24.58
827.364	25.04
827.665	25.59
827.965	26.11
828.266	26.51
828.567	26.86
828.868	27.07
829.168	27.33
829.469	27.58
829.769	27.99
830.07	28.44
830.37	28.86
830.67	29.33
830.971	29.89
831.271	30.53
831.571	30.98
831.871	31.32
832.171	31.6
832.471	31.87
832.771	32.16
833.071	32.57
833.371	32.83
833.671	33
833.971	33.09
834.27	33.16
834.57	33.09
834.869	33.06
835.169	33.34
835.468	33.28
835.768	33.29
836.067	33.28
836.367	33.31
836.666	33.51
836.965	33.95
837.264	34.3
837.563	34.82
837.862	35.65
838.161	36.87
838.46	37.37
838.759	38.46
839.058	39.3
839.356	39.92
839.655	40.47
839.954	40.53
840.252	40.6
840.551	40.84
840.849	40.88
841.148	41.21
841.446	41.85
841.744	42.24
842.043	42.98
842.341	43.35
842.639	43.98
842.937	44.86
843.235	45.34
843.533	45.94
843.831	46.93
844.129	47.84
844.427	48.38
844.724	49.75
845.022	50.24
845.32	51.21
845.617	52.2
845.915	53.66
846.212	55.6
846.51	56.07
846.807	56.8
847.104	57.99
847.402	58.99
847.699	59.04
847.996	59.26
848.293	58.83
848.59	59.53
848.887	59.85
849.184	60.52
849.481	61.42
849.778	61.9
850.074	61.56
850.371	61.49
850.668	61.14
850.964	61.89
851.261	61.9
851.557	62.09
851.854	63.09
852.15	62.66
852.446	62.89
852.743	64.27
853.039	64.14
853.335	65.17
853.631	65.52
853.927	65.79
854.223	65.49
854.519	65.32
854.815	64.89
855.111	63.85
855.406	63.63
855.702	63.16
855.998	63.74
856.293	63.91
856.589	64.54
856.884	65.65
857.18	65.59
857.475	65.95
857.77	65.87
858.066	64.81
858.361	65.21
858.656	64.7
858.951	64.24
859.246	64.46
859.541	64.17
859.836	62.93
860.131	62.17
860.426	63.22
860.72	62.54
861.015	62.66
861.31	63.38
861.604	63.7
861.899	63.89
862.193	63.18
862.487	62.67
862.782	62.49
863.076	62.37
863.37	62.79
863.664	63.49
863.959	63.81
864.253	64.07
864.547	63.71
864.841	64.47
865.135	64.45
865.428	64.49
865.722	64.23
866.016	64.68
866.31	65.13
866.603	65.52
866.897	66.93
867.19	67.5
867.484	68.25
867.777	67.76
868.07	67.63
868.364	67.42
868.657	69.08
868.95	69.92
869.243	69.36
869.536	68.56
869.829	68.25
870.122	67.68
870.415	67.85
870.708	67.12
871	65.67
871.293	64.73
871.586	64.06
871.878	63.78
872.171	63.93
872.463	63.46
872.756	63.19
873.048	62.93
873.341	62.36
873.633	61.72
873.925	61.52
874.217	61.5
874.509	62.14
874.801	60.72
875.093	59.08
875.385	59.52
875.677	59.21
875.969	57.74
