Data from pcis_c_m2_p2_Reflection_4.txt Node
Date: Wed Jul 12 17:32:57 ART 2017
User: rodoncho
Spectrometer: USB2E3644
Trigger mode: 4
Integration Time (sec): 6.000000E-2
Scans to average: 10
Electric dark correction enabled: true
Nonlinearity correction enabled: false
Boxcar width: 10
XAxis mode: Wavelengths
Number of Pixels in Spectrum: 2048
>>>>>Begin Spectral Data<<<<<
178.315	3.97
178.696	19.57
179.076	54.55
179.457	8.71
179.838	-32.06
180.218	-140.82
180.599	225.69
180.979	42.86
181.36	66.38
181.74	76.24
182.121	117.53
182.501	103.77
182.881	119.04
183.262	162.88
183.642	461.54
184.022	-211.2
184.402	-47.44
184.783	-17.23
185.163	-5.57
185.543	15.77
185.923	25.52
186.303	32.17
186.683	45.55
187.063	57.05
187.443	51.07
187.823	51.99
188.203	58.55
188.583	69.56
188.963	77.64
189.343	78.38
189.723	83.24
190.102	88.9
190.482	92.03
190.862	93.22
191.242	99.58
191.621	103.24
192.001	104.48
192.38	104.04
192.76	109.2
193.14	108.09
193.519	109.61
193.898	109.45
194.278	108.7
194.657	108.28
195.037	110.26
195.416	113.86
195.795	113.79
196.175	112.13
196.554	111.32
196.933	110.77
197.312	110.44
197.692	109.68
198.071	108.96
198.45	108.92
198.829	109.55
199.208	108.93
199.587	108.39
199.966	108.82
200.345	106.93
200.724	105.71
201.103	107.44
201.482	107.97
201.86	107.08
202.239	106.27
202.618	104.81
202.997	104.15
203.375	104.53
203.754	105.63
204.133	104.12
204.511	102.95
204.89	103.96
205.269	104.71
205.647	104.68
206.026	103.26
206.404	101.3
206.782	100.56
207.161	100.47
207.539	101.28
207.918	102.61
208.296	105.53
208.674	106.96
209.052	107.2
209.431	106.02
209.809	107.18
210.187	107.57
210.565	108.26
210.943	109.74
211.321	109.02
211.699	107.82
212.077	107.63
212.455	108.07
212.833	107.03
213.211	107.19
213.589	107.78
213.967	108.8
214.345	109.17
214.722	109.86
215.1	109.78
215.478	109.18
215.855	108.26
216.233	106.63
216.611	105.94
216.988	105.14
217.366	104.41
217.743	104.26
218.121	104.41
218.498	104.34
218.876	104.09
219.253	104.4
219.631	105.79
220.008	108.65
220.385	109.71
220.762	109.17
221.14	108.53
221.517	108.3
221.894	108.48
222.271	108.84
222.648	110.22
223.025	111.12
223.402	111.83
223.78	112.27
224.157	113.08
224.533	113.71
224.91	113.12
225.287	114.89
225.664	114.65
226.041	115.32
226.418	115.86
226.795	114.41
227.171	114.03
227.548	112.7
227.925	110.25
228.301	108.23
228.678	109.07
229.055	109.54
229.431	109.21
229.808	109.52
230.184	110.62
230.561	109.5
230.937	109.57
231.313	110.33
231.69	109.44
232.066	108.9
232.442	109.16
232.819	110.54
233.195	110.39
233.571	110.48
233.947	109.5
234.323	109.41
234.699	109.95
235.075	110.27
235.451	112.06
235.827	113.9
236.203	116.3
236.579	117.43
236.955	118.02
237.331	119.05
237.707	119.42
238.083	121.17
238.459	123.7
238.834	127.33
239.21	131
239.586	136.35
239.961	139.89
240.337	143.04
240.713	145.17
241.088	147.56
241.464	150.92
241.839	157.56
242.215	166.43
242.59	176.96
242.965	201.27
243.341	249.37
243.716	332.96
244.091	456.03
244.467	623.62
244.842	1026.47
245.217	2031.6
245.592	4781.15
245.967	19544.68
246.343	26314.29
246.718	4875.39
247.093	4073.13
247.468	5306.36
247.843	22492.68
248.218	-3774.27
248.593	-1233.84
248.967	-791.81
249.342	-653.47
249.717	-651.05
250.092	-679.85
250.467	-770.84
250.841	-1305.99
251.216	5195.38
251.591	986.61
251.965	613.02
252.34	490.46
252.714	419.03
253.089	378.64
253.463	377.11
253.838	376.64
254.212	384.8
254.587	420.91
254.961	517.3
255.335	825.34
255.71	18829.79
256.084	-607.49
256.458	-315.74
256.832	-210.79
257.206	-172.84
257.581	-151.55
257.955	-141.71
258.329	-132.73
258.703	-123.54
259.077	-115.19
259.451	-109.64
259.825	-103.23
260.199	-100.3
260.572	-95.86
260.946	-91.15
261.32	-89.77
261.694	-86.06
262.068	-82.77
262.441	-81.15
262.815	-80.46
263.189	-80.53
263.562	-85.22
263.936	-98.96
264.309	-118.85
264.683	-143.16
265.056	-156.99
265.43	-164.72
265.803	-160.87
266.176	-156.62
266.55	-157.3
266.923	-153.79
267.296	-147.92
267.67	-142.32
268.043	-129.52
268.416	-118.32
268.789	-104.76
269.162	-91.69
269.535	-84.03
269.908	-80.32
270.281	-76.94
270.654	-76.3
271.027	-79.47
271.4	-81.69
271.773	-82.45
272.146	-82.05
272.519	-78.41
272.891	-76.06
273.264	-75.66
273.637	-74.37
274.01	-74.46
274.382	-72.63
274.755	-71.84
275.127	-71.4
275.5	-71.96
275.872	-71.63
276.245	-72.5
276.617	-75.19
276.99	-78.99
277.362	-82.3
277.734	-82.81
278.107	-82.43
278.479	-79.27
278.851	-74.67
279.223	-70.26
279.596	-67.67
279.968	-65.5
280.34	-65.59
280.712	-63.48
281.084	-58.97
281.456	-54.28
281.828	-49.3
282.2	-45.1
282.572	-41.23
282.944	-38.71
283.315	-37.32
283.687	-36.49
284.059	-35.92
284.431	-35.17
284.802	-34.59
285.174	-33.47
285.546	-31.7
285.917	-30.81
286.289	-29.02
286.66	-27.79
287.032	-27.8
287.403	-27.24
287.775	-26.96
288.146	-26.44
288.518	-26.46
288.889	-26.56
289.26	-27.67
289.632	-28.97
290.003	-30.16
290.374	-31.58
290.745	-31.97
291.116	-31.31
291.487	-30.42
291.858	-29.02
292.229	-28.14
292.6	-26.83
292.971	-25.3
293.342	-23.5
293.713	-21.51
294.084	-20.67
294.455	-20.43
294.826	-19.54
295.196	-19.54
295.567	-18.66
295.938	-18.13
296.308	-18.14
296.679	-17.26
297.05	-16.09
297.42	-15.6
297.791	-14.55
298.161	-13.52
298.532	-13.17
298.902	-12.8
299.272	-12.56
299.643	-12.44
300.013	-12
300.383	-11.36
300.754	-10.99
301.124	-11.49
301.494	-11.72
301.864	-11.56
302.234	-11.32
302.604	-11.25
302.974	-10.78
303.344	-10.56
303.714	-10.46
304.084	-9.68
304.454	-9.64
304.824	-9.03
305.194	-7.86
305.563	-7.1
305.933	-6.29
306.303	-5.16
306.673	-4.39
307.042	-3.88
307.412	-2.79
307.781	-1.56
308.151	-0.83
308.521	-0.52
308.89	-0.08
309.259	0.18
309.629	0.1
309.998	0.13
310.368	0.11
310.737	0.08
311.106	0.3
311.475	0.99
311.845	1.31
312.214	1.86
312.583	1.88
312.952	2.1
313.321	2.01
313.69	1.83
314.059	1.72
314.428	1.48
314.797	1.35
315.166	0.78
315.535	0.37
315.904	0.08
316.272	0.1
316.641	-0.2
317.01	-0.08
317.379	-0.06
317.747	0.26
318.116	0.93
318.484	1.24
318.853	1.35
319.221	1.22
319.59	1.51
319.958	1.7
320.327	1.95
320.695	1.79
321.063	2.05
321.432	2.36
321.8	2.57
322.168	3.27
322.536	4.1
322.905	5.05
323.273	5.38
323.641	5.88
324.009	6.1
324.377	6.52
324.745	6.61
325.113	7
325.481	7.43
325.849	7.58
326.216	8.05
326.584	8.44
326.952	8.76
327.32	9.16
327.687	9.66
328.055	10.13
328.423	10.46
328.79	10.69
329.158	10.84
329.525	11.28
329.893	11.36
330.26	11.32
330.628	11.39
330.995	11.55
331.362	11.68
331.73	12.04
332.097	12.47
332.464	12.62
332.831	12.65
333.199	12.78
333.566	12.94
333.933	12.97
334.3	12.89
334.667	13.08
335.034	13.21
335.401	13.09
335.768	13.08
336.135	13.2
336.502	13.19
336.868	13.41
337.235	13.58
337.602	13.9
337.969	14.16
338.335	14.41
338.702	14.71
339.069	14.81
339.435	14.93
339.802	15.03
340.168	15.4
340.535	15.73
340.901	15.89
341.267	16.06
341.634	16.36
342	16.64
342.366	16.82
342.733	17.08
343.099	17.28
343.465	17.45
343.831	17.67
344.197	17.92
344.563	18.02
344.929	18.2
345.295	18.31
345.661	18.41
346.027	18.49
346.393	18.49
346.759	18.56
347.125	18.59
347.491	18.65
347.856	18.84
348.222	18.82
348.588	18.97
348.953	19.05
349.319	19.1
349.684	19.06
350.05	19.11
350.415	19.03
350.781	19.16
351.146	19.3
351.512	19.43
351.877	19.57
352.242	19.66
352.608	19.62
352.973	19.6
353.338	19.67
353.703	19.69
354.068	19.79
354.433	19.96
354.798	20.09
355.164	20.19
355.528	20.09
355.893	20.24
356.258	20.33
356.623	20.46
356.988	20.61
357.353	20.82
357.718	20.95
358.082	21.11
358.447	21.17
358.812	21.17
359.176	21.21
359.541	21.23
359.905	21.39
360.27	21.5
360.634	21.67
360.999	21.81
361.363	21.91
361.728	22.03
362.092	22.06
362.456	22.1
362.821	22.22
363.185	22.38
363.549	22.48
363.913	22.61
364.277	22.7
364.641	22.74
365.005	22.9
365.369	22.99
365.733	23.12
366.097	23.2
366.461	23.29
366.825	23.43
367.189	23.46
367.553	23.52
367.916	23.63
368.28	23.73
368.644	23.95
369.007	24.15
369.371	24.19
369.734	24.38
370.098	24.51
370.461	24.59
370.825	24.68
371.188	24.82
371.552	24.88
371.915	24.99
372.278	25.07
372.642	25.13
373.005	25.27
373.368	25.36
373.731	25.53
374.094	25.65
374.457	25.68
374.82	25.76
375.183	25.75
375.546	25.88
375.909	25.96
376.272	25.94
376.635	25.87
376.998	25.94
377.361	25.95
377.723	26.05
378.086	26.08
378.449	26.18
378.811	26.24
379.174	26.24
379.537	26.29
379.899	26.37
380.262	26.43
380.624	26.45
380.987	26.47
381.349	26.48
381.711	26.54
382.074	26.63
382.436	26.73
382.798	26.77
383.16	26.78
383.522	26.77
383.884	26.79
384.247	26.94
384.609	27.07
384.971	27.09
385.333	27.13
385.695	27.21
386.056	27.22
386.418	27.22
386.78	27.3
387.142	27.32
387.504	27.38
387.865	27.4
388.227	27.43
388.589	27.45
388.95	27.42
389.312	27.39
389.673	27.44
390.035	27.41
390.396	27.49
390.758	27.52
391.119	27.58
391.48	27.64
391.842	27.66
392.203	27.64
392.564	27.68
392.925	27.67
393.286	27.73
393.648	27.75
394.009	27.79
394.37	27.79
394.731	27.83
395.092	27.78
395.452	27.81
395.813	27.87
396.174	27.9
396.535	27.96
396.896	28.01
397.257	28.05
397.617	28.13
397.978	28.2
398.338	28.28
398.699	28.3
399.06	28.31
399.42	28.28
399.781	28.3
400.141	28.28
400.501	28.26
400.862	28.22
401.222	28.27
401.582	28.29
401.943	28.3
402.303	28.28
402.663	28.36
403.023	28.35
403.383	28.31
403.743	28.29
404.103	28.28
404.463	28.26
404.823	28.24
405.183	28.2
405.543	28.16
405.903	28.05
406.262	28.06
406.622	28.06
406.982	28.01
407.342	28.01
407.701	28.01
408.061	28.02
408.42	27.99
408.78	27.93
409.139	27.9
409.499	27.88
409.858	27.85
410.217	27.81
410.577	27.75
410.936	27.75
411.295	27.74
411.655	27.71
412.014	27.69
412.373	27.64
412.732	27.61
413.091	27.53
413.45	27.51
413.809	27.43
414.168	27.33
414.527	27.26
414.886	27.15
415.245	27.03
415.603	26.95
415.962	26.87
416.321	26.76
416.679	26.65
417.038	26.51
417.397	26.39
417.755	26.28
418.114	26.21
418.472	26.14
418.831	26.05
419.189	25.98
419.547	25.9
419.906	25.81
420.264	25.71
420.622	25.64
420.981	25.52
421.339	25.45
421.697	25.38
422.055	25.33
422.413	25.28
422.771	25.26
423.129	25.2
423.487	25.15
423.845	25.12
424.203	25.07
424.56	25.04
424.918	25
425.276	24.97
425.634	24.92
425.991	24.83
426.349	24.77
426.707	24.72
427.064	24.64
427.422	24.6
427.779	24.56
428.137	24.47
428.494	24.42
428.851	24.3
429.209	24.2
429.566	24.05
429.923	23.91
430.28	23.78
430.637	23.68
430.995	23.6
431.352	23.52
431.709	23.44
432.066	23.37
432.423	23.31
432.78	23.23
433.137	23.15
433.493	23.07
433.85	23.01
434.207	22.91
434.564	22.81
434.92	22.68
435.277	22.59
435.634	22.48
435.99	22.35
436.347	22.22
436.703	22.1
437.06	21.99
437.416	21.9
437.773	21.82
438.129	21.72
438.485	21.64
438.841	21.56
439.198	21.48
439.554	21.41
439.91	21.34
440.266	21.24
440.622	21.15
440.978	21.05
441.334	20.94
441.69	20.84
442.046	20.74
442.402	20.63
442.758	20.49
443.113	20.37
443.469	20.26
443.825	20.18
444.181	20.1
444.536	20.03
444.892	19.95
445.247	19.87
445.603	19.8
445.958	19.73
446.314	19.64
446.669	19.55
447.025	19.48
447.38	19.4
447.735	19.32
448.09	19.26
448.446	19.17
448.801	19.08
449.156	18.99
449.511	18.91
449.866	18.83
450.221	18.75
450.576	18.69
450.931	18.61
451.286	18.5
451.641	18.4
451.995	18.28
452.35	18.18
452.705	18.08
453.06	17.97
453.414	17.89
453.769	17.81
454.123	17.73
454.478	17.61
454.832	17.51
455.187	17.4
455.541	17.25
455.896	17.1
456.25	16.95
456.604	16.8
456.958	16.68
457.313	16.58
457.667	16.5
458.021	16.42
458.375	16.34
458.729	16.29
459.083	16.22
459.437	16.17
459.791	16.1
460.145	16.03
460.499	15.97
460.852	15.9
461.206	15.83
461.56	15.77
461.914	15.72
462.267	15.65
462.621	15.59
462.974	15.55
463.328	15.5
463.681	15.44
464.035	15.4
464.388	15.33
464.742	15.26
465.095	15.2
465.448	15.12
465.801	15.06
466.155	14.97
466.508	14.9
466.861	14.83
467.214	14.76
467.567	14.7
467.92	14.65
468.273	14.6
468.626	14.52
468.979	14.46
469.332	14.38
469.684	14.32
470.037	14.25
470.39	14.2
470.743	14.14
471.095	14.09
471.448	14.06
471.8	14.01
472.153	13.95
472.505	13.9
472.858	13.84
473.21	13.76
473.562	13.68
473.915	13.6
474.267	13.52
474.619	13.48
474.971	13.4
475.324	13.32
475.676	13.25
476.028	13.2
476.38	13.13
476.732	13.07
477.084	12.99
477.436	12.91
477.787	12.84
478.139	12.78
478.491	12.68
478.843	12.56
479.195	12.44
479.546	12.31
479.898	12.12
480.249	11.97
480.601	11.85
480.952	11.76
481.304	11.68
481.655	11.62
482.007	11.55
482.358	11.51
482.709	11.46
483.061	11.41
483.412	11.35
483.763	11.29
484.114	11.23
484.465	11.19
484.816	11.14
485.167	11.1
485.518	11.06
485.869	11.04
486.22	11.02
486.571	11.01
486.922	10.99
487.272	10.96
487.623	10.92
487.974	10.86
488.324	10.81
488.675	10.76
489.025	10.73
489.376	10.7
489.726	10.68
490.077	10.66
490.427	10.64
490.778	10.63
491.128	10.63
491.478	10.63
491.828	10.63
492.179	10.63
492.529	10.62
492.879	10.6
493.229	10.58
493.579	10.54
493.929	10.53
494.279	10.5
494.629	10.49
494.979	10.48
495.328	10.48
495.678	10.47
496.028	10.47
496.378	10.45
496.727	10.45
497.077	10.45
497.426	10.46
497.776	10.42
498.125	10.41
498.475	10.39
498.824	10.36
499.174	10.35
499.523	10.31
499.872	10.29
500.221	10.26
500.571	10.25
500.92	10.23
501.269	10.18
501.618	10.16
501.967	10.14
502.316	10.1
502.665	10.07
503.014	10.05
503.363	10.03
503.711	10.01
504.06	9.97
504.409	9.92
504.758	9.85
505.106	9.82
505.455	9.77
505.803	9.73
506.152	9.7
506.5	9.66
506.849	9.62
507.197	9.59
507.546	9.58
507.894	9.55
508.242	9.53
508.59	9.51
508.939	9.49
509.287	9.46
509.635	9.46
509.983	9.43
510.331	9.41
510.679	9.39
511.027	9.36
511.375	9.34
511.723	9.33
512.07	9.33
512.418	9.32
512.766	9.31
513.114	9.31
513.461	9.31
513.809	9.3
514.156	9.29
514.504	9.27
514.851	9.25
515.199	9.21
515.546	9.19
515.893	9.15
516.241	9.12
516.588	9.11
516.935	9.09
517.282	9.08
517.63	9.05
517.977	9.03
518.324	9.03
518.671	9.02
519.018	9.01
519.365	9.01
519.711	9
520.058	8.98
520.405	8.95
520.752	8.92
521.099	8.9
521.445	8.88
521.792	8.83
522.138	8.8
522.485	8.78
522.832	8.76
523.178	8.74
523.524	8.74
523.871	8.72
524.217	8.68
524.563	8.63
524.91	8.55
525.256	8.48
525.602	8.42
525.948	8.37
526.294	8.32
526.64	8.29
526.986	8.27
527.332	8.25
527.678	8.25
528.024	8.23
528.37	8.23
528.716	8.21
529.061	8.21
529.407	8.19
529.753	8.17
530.098	8.14
530.444	8.12
530.789	8.1
531.135	8.08
531.48	8.09
531.826	8.1
532.171	8.11
532.516	8.12
532.862	8.13
533.207	8.14
533.552	8.15
533.897	8.16
534.242	8.16
534.587	8.16
534.932	8.15
535.277	8.15
535.622	8.14
535.967	8.15
536.312	8.16
536.657	8.15
537.001	8.17
537.346	8.17
537.691	8.16
538.035	8.14
538.38	8.11
538.724	8.08
539.069	8.04
539.413	8.02
539.758	8
540.102	7.99
540.446	7.96
540.791	7.95
541.135	7.95
541.479	7.94
541.823	7.92
542.167	7.92
542.512	7.91
542.856	7.89
543.2	7.86
543.543	7.84
543.887	7.84
544.231	7.83
544.575	7.83
544.919	7.82
545.262	7.83
545.606	7.83
545.95	7.84
546.293	7.84
546.637	7.86
546.98	7.88
547.324	7.86
547.667	7.89
548.011	7.87
548.354	7.84
548.697	7.83
549.04	7.83
549.384	7.83
549.727	7.81
550.07	7.8
550.413	7.79
550.756	7.8
551.099	7.76
551.442	7.74
551.785	7.72
552.128	7.71
552.47	7.71
552.813	7.69
553.156	7.68
553.499	7.65
553.841	7.63
554.184	7.59
554.526	7.57
554.869	7.53
555.211	7.51
555.554	7.5
555.896	7.45
556.238	7.43
556.581	7.39
556.923	7.35
557.265	7.31
557.607	7.3
557.949	7.25
558.291	7.23
558.633	7.21
558.975	7.19
559.317	7.17
559.659	7.13
560.001	7.1
560.343	7.07
560.685	7.02
561.026	6.98
561.368	6.95
561.71	6.89
562.051	6.86
562.393	6.87
562.734	6.83
563.076	6.79
563.417	6.79
563.759	6.79
564.1	6.79
564.441	6.78
564.782	6.73
565.124	6.7
565.465	6.68
565.806	6.65
566.147	6.62
566.488	6.6
566.829	6.58
567.17	6.54
567.511	6.53
567.851	6.53
568.192	6.51
568.533	6.5
568.874	6.51
569.214	6.5
569.555	6.45
569.895	6.42
570.236	6.41
570.576	6.38
570.917	6.35
571.257	6.3
571.598	6.28
571.938	6.29
572.278	6.27
572.618	6.25
572.959	6.22
573.299	6.22
573.639	6.18
573.979	6.16
574.319	6.15
574.659	6.1
574.999	6.05
575.339	6.02
575.678	5.98
576.018	5.92
576.358	5.89
576.698	5.85
577.037	5.82
577.377	5.78
577.716	5.73
578.056	5.7
578.395	5.69
578.735	5.63
579.074	5.57
579.413	5.51
579.753	5.49
580.092	5.49
580.431	5.46
580.77	5.43
581.109	5.4
581.448	5.36
581.787	5.35
582.126	5.33
582.465	5.29
582.804	5.25
583.143	5.24
583.482	5.21
583.82	5.19
584.159	5.18
584.498	5.16
584.836	5.16
585.175	5.13
585.514	5.07
585.852	5.1
586.19	5.08
586.529	5.1
586.867	5.1
587.205	5.08
587.544	5.07
587.882	5.06
588.22	5.05
588.558	5.03
588.896	5.01
589.234	5
589.572	5
589.91	4.98
590.248	4.97
590.586	4.99
590.924	5
591.262	4.99
591.599	4.97
591.937	4.93
592.275	4.93
592.612	4.91
592.95	4.9
593.287	4.9
593.625	4.93
593.962	4.92
594.299	4.91
594.637	4.9
594.974	4.9
595.311	4.88
595.648	4.89
595.985	4.87
596.322	4.84
596.659	4.83
596.996	4.85
597.333	4.83
597.67	4.8
598.007	4.79
598.344	4.77
598.681	4.74
599.017	4.72
599.354	4.72
599.691	4.71
600.027	4.68
600.364	4.66
600.7	4.64
601.037	4.61
601.373	4.62
601.71	4.63
602.046	4.62
602.382	4.61
602.718	4.6
603.054	4.61
603.391	4.62
603.727	4.62
604.063	4.6
604.399	4.59
604.735	4.58
605.071	4.57
605.406	4.58
605.742	4.59
606.078	4.6
606.414	4.6
606.749	4.62
607.085	4.62
607.421	4.62
607.756	4.6
608.092	4.58
608.427	4.53
608.762	4.48
609.098	4.44
609.433	4.42
609.768	4.4
610.104	4.37
610.439	4.35
610.774	4.32
611.109	4.29
611.444	4.27
611.779	4.25
612.114	4.22
612.449	4.2
612.784	4.18
613.118	4.14
613.453	4.08
613.788	4.01
614.123	3.93
614.457	3.84
614.792	3.8
615.126	3.74
615.461	3.71
615.795	3.64
616.13	3.62
616.464	3.6
616.798	3.56
617.132	3.55
617.467	3.55
617.801	3.53
618.135	3.54
618.469	3.56
618.803	3.55
619.137	3.52
619.471	3.48
619.805	3.45
620.139	3.43
620.472	3.45
620.806	3.41
621.14	3.41
621.473	3.43
621.807	3.41
622.141	3.44
622.474	3.41
622.808	3.37
623.141	3.39
623.474	3.41
623.808	3.43
624.141	3.45
624.474	3.45
624.807	3.48
625.141	3.47
625.474	3.47
625.807	3.46
626.14	3.49
626.473	3.5
626.806	3.52
627.138	3.54
627.471	3.5
627.804	3.54
628.137	3.56
628.469	3.52
628.802	3.49
629.135	3.47
629.467	3.46
629.8	3.49
630.132	3.47
630.465	3.44
630.797	3.41
631.129	3.36
631.461	3.32
631.794	3.3
632.126	3.26
632.458	3.24
632.79	3.24
633.122	3.21
633.454	3.18
633.786	3.15
634.118	3.12
634.45	3.13
634.781	3.09
635.113	3.05
635.445	3.05
635.777	3.02
636.108	3.01
636.44	3.03
636.771	2.98
637.103	2.94
637.434	2.9
637.765	2.91
638.097	2.88
638.428	2.83
638.759	2.78
639.09	2.74
639.422	2.67
639.753	2.63
640.084	2.64
640.415	2.65
640.746	2.6
641.077	2.55
641.407	2.5
641.738	2.49
642.069	2.48
642.4	2.46
642.73	2.47
643.061	2.45
643.392	2.41
643.722	2.48
644.053	2.46
644.383	2.47
644.713	2.41
645.044	2.41
645.374	2.41
645.704	2.38
646.034	2.4
646.365	2.45
646.695	2.43
647.025	2.36
647.355	2.32
647.685	2.33
648.015	2.39
648.344	2.43
648.674	2.42
649.004	2.46
649.334	2.51
649.663	2.53
649.993	2.56
650.323	2.58
650.652	2.52
650.982	2.51
651.311	2.48
651.64	2.46
651.97	2.45
652.299	2.49
652.628	2.51
652.958	2.52
653.287	2.49
653.616	2.49
653.945	2.52
654.274	2.49
654.603	2.48
654.932	2.47
655.261	2.45
655.589	2.49
655.918	2.53
656.247	2.56
656.576	2.62
656.904	2.68
657.233	2.72
657.561	2.74
657.89	2.77
658.218	2.81
658.547	2.82
658.875	2.88
659.203	2.87
659.532	2.85
659.86	2.83
660.188	2.84
660.516	2.85
660.844	2.83
661.172	2.85
661.5	2.88
661.828	2.83
662.156	2.78
662.484	2.75
662.811	2.7
663.139	2.66
663.467	2.54
663.794	2.43
664.122	2.35
664.45	2.3
664.777	2.26
665.104	2.21
665.432	2.16
665.759	2.05
666.086	2.05
666.414	2.11
666.741	2.13
667.068	2.15
667.395	2.17
667.722	2.16
668.049	2.16
668.376	2.1
668.703	2.11
669.03	2.15
669.357	2.13
669.683	2.1
670.01	2.09
670.337	2.1
670.663	2.13
670.99	2.05
671.317	2.05
671.643	2.08
671.969	2.1
672.296	2.13
672.622	2.16
672.948	2.12
673.275	1.99
673.601	1.89
673.927	1.82
674.253	1.8
674.579	1.86
674.905	1.88
675.231	1.9
675.557	1.93
675.883	1.95
676.209	1.97
676.534	2.01
676.86	1.98
677.186	2.07
677.511	2.14
677.837	2.23
678.162	2.27
678.488	2.3
678.813	2.33
679.139	2.35
679.464	2.4
679.789	2.46
680.114	2.57
680.44	2.61
680.765	2.65
681.09	2.62
681.415	2.55
681.74	2.54
682.065	2.53
682.39	2.5
682.714	2.45
683.039	2.41
683.364	2.37
683.689	2.38
684.013	2.31
684.338	2.23
684.662	2.24
684.987	2.23
685.311	2.14
685.636	2.05
685.96	2.03
686.284	1.93
686.608	1.88
686.933	1.81
687.257	1.76
687.581	1.74
687.905	1.74
688.229	1.76
688.553	1.76
688.877	1.77
689.201	1.77
689.524	1.73
689.848	1.73
690.172	1.68
690.496	1.65
690.819	1.62
691.143	1.61
691.466	1.53
691.79	1.47
692.113	1.47
692.436	1.47
692.76	1.42
693.083	1.37
693.406	1.33
693.729	1.29
694.053	1.35
694.376	1.35
694.699	1.37
695.022	1.45
695.344	1.56
695.667	1.68
695.99	1.83
696.313	1.94
696.636	2.08
696.958	2.2
697.281	2.27
697.604	2.32
697.926	2.33
698.249	2.36
698.571	2.38
698.893	2.37
699.216	2.34
699.538	2.33
699.86	2.32
700.182	2.29
700.504	2.32
700.827	2.28
701.149	2.27
701.471	2.2
701.793	2.07
702.114	1.88
702.436	1.68
702.758	1.43
703.08	1.26
703.401	0.95
703.723	0.72
704.045	0.59
704.366	0.45
704.688	0.37
705.009	0.32
705.331	0.36
705.652	0.32
705.973	0.38
706.294	0.39
706.616	0.48
706.937	0.53
707.258	0.59
707.579	0.64
707.9	0.67
708.221	0.75
708.542	0.78
708.863	0.84
709.183	0.88
709.504	0.95
709.825	1.08
710.145	1.22
710.466	1.25
710.787	1.2
711.107	1.14
711.427	1.09
711.748	1.04
712.068	0.98
712.388	1.04
712.709	1.02
713.029	1.04
713.349	0.98
713.669	1.06
713.989	1.08
714.309	1.07
714.629	0.97
714.949	0.92
715.269	0.94
715.589	0.95
715.908	1.02
716.228	1
716.548	0.9
716.867	0.86
717.187	0.83
717.506	0.9
717.826	0.98
718.145	1.06
718.465	1.13
718.784	1.23
719.103	1.21
719.422	1.27
719.741	1.28
720.061	1.39
720.38	1.47
720.699	1.49
721.018	1.51
721.336	1.67
721.655	1.78
721.974	1.84
722.293	1.89
722.612	1.86
722.93	1.97
723.249	2.12
723.567	2.22
723.886	2.54
724.204	2.72
724.523	2.88
724.841	2.99
725.159	3.15
725.477	3.28
725.796	3.53
726.114	3.67
726.432	3.9
726.75	4.09
727.068	4.11
727.386	4.24
727.704	4.47
728.022	4.57
728.339	4.65
728.657	4.78
728.975	4.93
729.292	5.14
729.61	5.29
729.928	5.35
730.245	5.41
730.562	5.46
730.88	5.5
731.197	5.63
731.514	5.74
731.832	5.83
732.149	5.91
732.466	5.94
732.783	6.06
733.1	6.13
733.417	6.21
733.734	6.42
734.051	6.51
734.368	6.62
734.684	6.84
735.001	6.97
735.318	7.13
735.634	7.27
735.951	7.38
736.268	7.6
736.584	7.86
736.9	8.14
737.217	8.23
737.533	8.34
737.849	8.43
738.166	8.64
738.482	8.78
738.798	8.87
739.114	9.09
739.43	9.18
739.746	9.21
740.062	9.3
740.378	9.42
740.693	9.59
741.009	9.74
741.325	9.91
741.641	10.18
741.956	10.4
742.272	10.6
742.587	10.72
742.903	10.75
743.218	10.91
743.533	10.97
743.849	11.12
744.164	11.22
744.479	11.27
744.794	11.47
745.109	11.65
745.424	11.73
745.739	11.73
746.054	11.89
746.369	12.06
746.684	12.09
746.999	11.98
747.313	11.89
747.628	11.86
747.943	11.89
748.257	11.84
748.572	11.89
748.886	11.93
749.201	11.91
749.515	11.92
749.829	11.91
750.144	11.99
750.458	12.09
750.772	12.24
751.086	12.45
751.4	12.44
751.714	12.45
752.028	12.57
752.342	12.76
752.656	12.79
752.97	12.87
753.284	13.11
753.597	13.38
753.911	13.76
754.225	13.92
754.538	14.01
754.852	14.12
755.165	14.1
755.478	14.02
755.792	14.18
756.105	14.38
756.418	14.45
756.731	14.54
757.045	14.67
757.358	14.81
757.671	14.91
757.984	15.02
758.297	15.25
758.609	15.4
758.922	15.48
759.235	15.62
759.548	15.63
759.86	15.57
760.173	15.36
760.486	15.01
760.798	14.8
761.111	14.64
761.423	14.56
761.735	14.52
762.048	14.6
762.36	14.55
762.672	14.46
762.984	14.51
763.296	14.46
763.608	14.49
763.92	14.55
764.232	14.64
764.544	14.59
764.856	14.55
765.168	14.64
765.48	14.75
765.791	14.87
766.103	15.1
766.414	15.3
766.726	15.53
767.037	15.85
767.349	16.19
767.66	16.55
767.972	17.04
768.283	17.49
768.594	18.03
768.905	18.47
769.216	18.89
769.527	19.27
769.838	19.88
770.149	20.21
770.46	20.54
770.771	20.83
771.082	21.16
771.393	21.47
771.703	21.69
772.014	21.81
772.324	21.96
772.635	22.06
772.945	22.33
773.256	22.81
773.566	23.15
773.877	23.51
774.187	23.73
774.497	23.66
774.807	23.67
775.117	23.85
775.427	24.14
775.737	24.28
776.047	24.28
776.357	24.34
776.667	24.39
776.977	24.5
777.287	24.45
777.596	24.67
777.906	24.58
778.216	24.75
778.525	24.93
778.835	24.87
779.144	24.93
779.453	24.78
779.763	24.78
780.072	24.85
780.381	24.79
780.69	24.83
781	25.11
781.309	25.34
781.618	25.15
781.927	25.23
782.235	25.5
782.544	25.71
782.853	25.67
783.162	25.82
783.471	26.05
783.779	26.22
784.088	26.17
784.396	26.61
784.705	26.38
785.013	26.34
785.322	26.48
785.63	26.4
785.938	26.44
786.246	26.52
786.554	26.56
786.863	26.7
787.171	26.8
787.479	26.85
787.787	26.79
788.094	26.82
788.402	26.71
788.71	26.65
789.018	26.38
789.326	26.46
789.633	26.73
789.941	26.52
790.248	26.51
790.556	26.66
790.863	26.75
791.171	26.96
791.478	27.21
791.785	27.3
792.092	27.55
792.399	27.55
792.707	27.52
793.014	27.59
793.321	27.59
793.628	27.54
793.934	27.29
794.241	27.14
794.548	27.05
794.855	26.84
795.161	26.57
795.468	26.79
795.775	26.97
796.081	26.8
796.388	26.92
796.694	27.02
797	27
797.307	26.94
797.613	27.03
797.919	26.81
798.225	26.88
798.531	26.94
798.837	27.3
799.143	27.44
799.449	27.73
799.755	27.94
800.061	28.34
800.367	28.81
800.672	29.46
800.978	30.1
801.284	30.59
801.589	31.2
801.895	31.37
802.2	31.58
802.506	31.7
802.811	31.9
803.116	31.92
803.421	31.85
803.727	31.91
804.032	32.11
804.337	32.51
804.642	32.73
804.947	32.77
805.252	32.85
805.556	32.91
805.861	32.8
806.166	32.9
806.471	32.59
806.775	32.27
807.08	32.12
807.384	32.06
807.689	32.12
807.993	32.04
808.298	32.38
808.602	32.38
808.906	32.39
809.211	32.43
809.515	32.34
809.819	32.37
810.123	32.41
810.427	32.51
810.731	32.43
811.035	32.44
811.338	32.86
811.642	33.17
811.946	33.37
812.25	33.43
812.553	33.34
812.857	33.7
813.16	34.19
813.464	34.45
813.767	34.73
814.07	34.74
814.374	34.7
814.677	34.49
814.98	34.3
815.283	34.27
815.586	34.27
815.889	34.31
816.192	34.5
816.495	34.38
816.798	34.09
817.101	33.84
817.404	33.01
817.706	32.03
818.009	30.82
818.312	29.74
818.614	28.4
818.917	26.57
819.219	24.32
819.521	21.93
819.824	19.67
820.126	18.07
820.428	17.03
820.73	16.19
821.032	15.56
821.334	15.05
821.636	14.81
821.938	14.67
822.24	14.56
822.542	14.45
822.844	14.39
823.145	14.29
823.447	14.1
823.749	14.05
824.05	13.94
824.352	13.87
824.653	13.78
824.955	13.71
825.256	13.76
825.557	13.96
825.858	14.26
826.16	14.73
826.461	15.2
826.762	15.69
827.063	16.16
827.364	16.79
827.665	17.56
827.965	18.03
828.266	18.34
828.567	18.77
828.868	19.19
829.168	19.5
829.469	19.86
829.769	20.37
830.07	20.84
830.37	21.39
830.67	22.09
830.971	22.77
831.271	23.43
831.571	23.78
831.871	23.97
832.171	24.19
832.471	24.31
832.771	24.43
833.071	24.7
833.371	25.06
833.671	25.12
833.971	25.2
834.27	25.32
834.57	25.34
834.869	25.34
835.169	25.41
835.468	25.31
835.768	25.28
836.067	25.39
836.367	25.65
836.666	25.81
836.965	26.21
837.264	26.79
837.563	27.67
837.862	28.83
838.161	29.8
838.46	30.91
838.759	31.88
839.058	32.93
839.356	33.74
839.655	34.68
839.954	35.79
840.252	36.41
840.551	36.93
840.849	37.8
841.148	38.73
841.446	38.94
841.744	39.51
842.043	40.19
842.341	40.56
842.639	40.69
842.937	41.57
843.235	42.44
843.533	43.69
843.831	44.37
844.129	45.23
844.427	46.78
844.724	48.43
845.022	49.46
845.32	50.32
845.617	51.34
845.915	52.46
846.212	52.64
846.51	53.6
846.807	54.73
847.104	55.7
847.402	55.92
847.699	56.09
847.996	57.08
848.293	56.9
848.59	56.64
848.887	57.13
849.184	57.48
849.481	57.18
849.778	56.8
850.074	57.78
850.371	57.94
850.668	57.69
850.964	57.57
851.261	58.02
851.557	58.81
851.854	59.59
852.15	60.36
852.446	61.55
852.743	61.33
853.039	60.92
853.335	60.7
853.631	60.87
853.927	61.1
854.223	60.27
854.519	60.85
854.815	61.74
855.111	61.31
855.406	60.87
855.702	60.97
855.998	61.1
856.293	60.6
856.589	61.32
856.884	61.66
857.18	62.04
857.475	62.42
857.77	61.62
858.066	61.23
858.361	60.75
858.656	59.31
858.951	59.25
859.246	59.35
859.541	59.21
859.836	58.92
860.131	58.89
860.426	59.15
860.72	58.96
861.015	58.56
861.31	59.11
861.604	58.28
861.899	57.76
862.193	57.19
862.487	57.73
862.782	58.62
863.076	58.5
863.37	57.78
863.664	58.13
863.959	59.27
864.253	59.6
864.547	59.35
864.841	59.8
865.135	59.5
865.428	59.64
865.722	59.86
866.016	59.59
866.31	60.09
866.603	59.92
866.897	59.1
867.19	58.69
867.484	59.42
867.777	60.41
868.07	60.7
868.364	61.57
868.657	60.29
868.95	58.57
869.243	58.38
869.536	57.39
869.829	56.6
870.122	55.97
870.415	55.96
870.708	56.43
871	57.1
871.293	57.95
871.586	57.42
871.878	57.12
872.171	57.43
872.463	58
872.756	58.49
873.048	59.18
873.341	59.58
873.633	58.69
873.925	58.94
874.217	59.26
874.509	58.47
874.801	59.46
875.093	59.97
875.385	60.45
875.677	62.32
875.969	63.25
