Data from pcis_c_h2_p6_Reflection_2.txt Node
Date: Wed Jul 12 17:43:10 ART 2017
User: rodoncho
Spectrometer: USB2E3644
Trigger mode: 4
Integration Time (sec): 6.000000E-2
Scans to average: 10
Electric dark correction enabled: true
Nonlinearity correction enabled: false
Boxcar width: 10
XAxis mode: Wavelengths
Number of Pixels in Spectrum: 2048
>>>>>Begin Spectral Data<<<<<
178.315	29.3
178.696	55.1
179.076	488.71
179.457	497.56
179.838	417.86
180.218	-166.07
180.599	47.8
180.979	16.67
181.36	60.48
181.74	107.14
182.121	259.62
182.501	82.45
182.881	77.55
183.262	72.7
183.642	29.38
184.022	-357.69
184.402	652.5
184.783	178.93
185.163	139.34
185.543	128.96
185.923	123.95
186.303	112.28
186.683	117.47
187.063	138.71
187.443	140.46
187.823	128.17
188.203	124.27
188.583	120.04
188.963	114.35
189.343	108.95
189.723	106.72
190.102	105.69
190.482	106.23
190.862	106.28
191.242	106.58
191.621	107.64
192.001	109.55
192.38	109.68
192.76	113.47
193.14	115.96
193.519	111.29
193.898	109.6
194.278	109.8
194.657	110.57
195.037	109.51
195.416	108.78
195.795	108.5
196.175	108.65
196.554	108.76
196.933	109.34
197.312	111.28
197.692	112.11
198.071	109.21
198.45	109.82
198.829	109.05
199.208	106.65
199.587	105.47
199.966	104.5
200.345	101.91
200.724	99.08
201.103	97.03
201.482	98.49
201.86	98.01
202.239	97.53
202.618	95.27
202.997	94.17
203.375	93.73
203.754	94.33
204.133	94.38
204.511	94.2
204.89	92.63
205.269	92.69
205.647	91.9
206.026	92.8
206.404	91.11
206.782	90.56
207.161	92.59
207.539	93.01
207.918	93.3
208.296	95.45
208.674	95.39
209.052	97.11
209.431	98.27
209.809	99.56
210.187	100.5
210.565	101.8
210.943	102.07
211.321	101.88
211.699	103.12
212.077	104.51
212.455	104
212.833	106.16
213.211	105.52
213.589	106.37
213.967	106.42
214.345	106.96
214.722	107.88
215.1	108.8
215.478	109.24
215.855	110.01
216.233	108.04
216.611	108.59
216.988	108.27
217.366	108.09
217.743	106.77
218.121	106.63
218.498	107.16
218.876	108.1
219.253	108.44
219.631	108.52
220.008	108.37
220.385	108.54
220.762	108.21
221.14	107.86
221.517	108.33
221.894	109.37
222.271	110.99
222.648	112.06
223.025	111.61
223.402	110.77
223.78	110.39
224.157	111.64
224.533	112.34
224.91	113.25
225.287	114.37
225.664	117.94
226.041	118.85
226.418	118.57
226.795	119.17
227.171	118.9
227.548	118.28
227.925	118.08
228.301	117.68
228.678	116.25
229.055	117.3
229.431	117.85
229.808	116.96
230.184	115.99
230.561	116.14
230.937	116.76
231.313	117.91
231.69	118.19
232.066	117.4
232.442	117.31
232.819	117.19
233.195	116.23
233.571	114.68
233.947	113.72
234.323	113.39
234.699	111.74
235.075	113.09
235.451	114.23
235.827	115.14
236.203	116.34
236.579	118.68
236.955	120.64
237.331	122.34
237.707	125.76
238.083	129.11
238.459	131.77
238.834	136.35
239.21	141.21
239.586	146.73
239.961	152.85
240.337	158.73
240.713	163.17
241.088	167.39
241.464	172.02
241.839	180.7
242.215	195.42
242.59	214.64
242.965	244.69
243.341	314.31
243.716	429.31
244.091	667.25
244.467	1077.61
244.842	2228.47
245.217	14376.56
245.592	-10747.67
245.967	-5606.71
246.343	-4354.25
246.718	-4501.46
247.093	-4328.77
247.468	-3873.31
247.843	-2820.55
248.218	-1712.13
248.593	-997.48
248.967	-678.29
249.342	-555.84
249.717	-532.39
250.092	-538.92
250.467	-594.38
250.841	-902.21
251.216	-7089.34
251.591	1387.74
251.965	691.03
252.34	530.1
252.714	477.35
253.089	419.58
253.463	396.25
253.838	404.8
254.212	418.2
254.587	451.21
254.961	519.52
255.335	730.36
255.71	2451.12
256.084	-995.27
256.458	-383.53
256.832	-242.56
257.206	-201.14
257.581	-178.7
257.955	-165.49
258.329	-153.84
258.703	-141.41
259.077	-133.53
259.451	-125.64
259.825	-116.66
260.199	-109.85
260.572	-107.91
260.946	-104.74
261.32	-102.95
261.694	-98.93
262.068	-95.41
262.441	-93.36
262.815	-92.61
263.189	-92.93
263.562	-98.62
263.936	-113.98
264.309	-139.85
264.683	-172.51
265.056	-193.17
265.43	-203.15
265.803	-199.83
266.176	-198.79
266.55	-203.76
266.923	-197.62
267.296	-189.84
267.67	-176.79
268.043	-162.26
268.416	-145.85
268.789	-128.07
269.162	-112.35
269.535	-103.49
269.908	-99.87
270.281	-97.47
270.654	-96.42
271.027	-97.54
271.4	-99.58
271.773	-100.08
272.146	-98.67
272.519	-94.45
272.891	-90.84
273.264	-89.24
273.637	-88.7
274.01	-88.23
274.382	-85.81
274.755	-83.69
275.127	-83.23
275.5	-83.55
275.872	-84.68
276.245	-84.57
276.617	-86.86
276.99	-90.76
277.362	-92.61
277.734	-92.32
278.107	-92.13
278.479	-89.64
278.851	-87.3
279.223	-84.18
279.596	-81.71
279.968	-80.08
280.34	-80.34
280.712	-79.21
281.084	-75.64
281.456	-69.54
281.828	-65.35
282.2	-60.82
282.572	-57.4
282.944	-54.22
283.315	-53
283.687	-51.82
284.059	-50.85
284.431	-49.79
284.802	-48.88
285.174	-47.88
285.546	-46.78
285.917	-45.94
286.289	-44.42
286.66	-43.01
287.032	-42.14
287.403	-40.82
287.775	-40.14
288.146	-39.85
288.518	-39.35
288.889	-38.98
289.26	-40.03
289.632	-40.43
290.003	-41.07
290.374	-42.62
290.745	-43.08
291.116	-42.21
291.487	-40.9
291.858	-39.9
292.229	-39.07
292.6	-37.42
292.971	-36.46
293.342	-34.7
293.713	-32.5
294.084	-31.53
294.455	-30.88
294.826	-30.1
295.196	-30.46
295.567	-30.47
295.938	-30.42
296.308	-30.42
296.679	-30.16
297.05	-29.6
297.42	-28.98
297.791	-27.95
298.161	-26.83
298.532	-26.5
298.902	-26.13
299.272	-25.65
299.643	-25.07
300.013	-24.94
300.383	-24.63
300.754	-24.3
301.124	-24.56
301.494	-24.69
301.864	-24.61
302.234	-24.88
302.604	-24.91
302.974	-24.23
303.344	-23.84
303.714	-23.35
304.084	-22.82
304.454	-22.43
304.824	-21.68
305.194	-20.69
305.563	-20.4
305.933	-19.75
306.303	-18.82
306.673	-18.3
307.042	-18.01
307.412	-17.21
307.781	-16.05
308.151	-15.54
308.521	-15.22
308.89	-14.97
309.259	-14.67
309.629	-14.42
309.998	-14.18
310.368	-14.17
310.737	-13.89
311.106	-13.55
311.475	-13.09
311.845	-12.95
312.214	-12.57
312.583	-12.59
312.952	-12.68
313.321	-12.58
313.69	-12.68
314.059	-13.22
314.428	-13.35
314.797	-13.54
315.166	-14.34
315.535	-14.99
315.904	-15.11
316.272	-15.27
316.641	-15.19
317.01	-15.39
317.379	-15.65
317.747	-15.32
318.116	-14.77
318.484	-14.74
318.853	-14.27
319.221	-13.85
319.59	-13.5
319.958	-13.2
320.327	-12.78
320.695	-12.55
321.063	-12.33
321.432	-11.84
321.8	-11.13
322.168	-10.27
322.536	-9.49
322.905	-8.49
323.273	-7.95
323.641	-7.56
324.009	-7.4
324.377	-7.15
324.745	-6.75
325.113	-6.5
325.481	-6.25
325.849	-6.06
326.216	-5.61
326.584	-5.29
326.952	-5.18
327.32	-4.8
327.687	-4.63
328.055	-4.29
328.423	-4.01
328.79	-3.81
329.158	-3.8
329.525	-3.38
329.893	-3.37
330.26	-3.45
330.628	-3.64
330.995	-3.35
331.362	-3.11
331.73	-2.56
332.097	-2.26
332.464	-2.09
332.831	-1.94
333.199	-1.58
333.566	-1.21
333.933	-1.24
334.3	-1.3
334.667	-0.99
335.034	-0.86
335.401	-0.92
335.768	-1.08
336.135	-1.03
336.502	-1.01
336.868	-0.7
337.235	-0.5
337.602	-0.24
337.969	-0.14
338.335	0.05
338.702	0.16
339.069	0.24
339.435	0.34
339.802	0.41
340.168	0.67
340.535	1.05
340.901	1.1
341.267	1.1
341.634	1.43
342	1.63
342.366	1.76
342.733	1.97
343.099	2.32
343.465	2.63
343.831	2.96
344.197	3.34
344.563	3.44
344.929	3.52
345.295	3.71
345.661	4.06
346.027	4.23
346.393	4.36
346.759	4.48
347.125	4.45
347.491	4.65
347.856	4.66
348.222	4.68
348.588	4.79
348.953	4.81
349.319	4.97
349.684	5.07
350.05	5.2
350.415	5.3
350.781	5.34
351.146	5.54
351.512	5.51
351.877	5.56
352.242	5.59
352.608	5.6
352.973	5.57
353.338	5.59
353.703	5.63
354.068	5.7
354.433	5.79
354.798	5.9
355.164	5.9
355.528	5.99
355.893	6.06
356.258	6.12
356.623	6.28
356.988	6.27
357.353	6.46
357.718	6.62
358.082	6.81
358.447	6.87
358.812	6.89
359.176	6.97
359.541	6.95
359.905	7.04
360.27	7.13
360.634	7.27
360.999	7.3
361.363	7.44
361.728	7.52
362.092	7.61
362.456	7.71
362.821	7.85
363.185	7.91
363.549	8.05
363.913	8.16
364.277	8.3
364.641	8.39
365.005	8.45
365.369	8.46
365.733	8.44
366.097	8.56
366.461	8.63
366.825	8.75
367.189	8.92
367.553	9.07
367.916	9.13
368.28	9.19
368.644	9.44
369.007	9.55
369.371	9.64
369.734	9.8
370.098	9.96
370.461	10.08
370.825	10.25
371.188	10.36
371.552	10.49
371.915	10.6
372.278	10.73
372.642	10.84
373.005	10.96
373.368	11.05
373.731	11.08
374.094	11.13
374.457	11.24
374.82	11.37
375.183	11.43
375.546	11.63
375.909	11.71
376.272	11.69
376.635	11.72
376.998	11.78
377.361	11.87
377.723	11.92
378.086	11.98
378.449	12.08
378.811	12.19
379.174	12.25
379.537	12.28
379.899	12.39
380.262	12.45
380.624	12.46
380.987	12.54
381.349	12.67
381.711	12.77
382.074	12.85
382.436	12.88
382.798	12.87
383.16	12.91
383.522	12.97
383.884	13.1
384.247	13.19
384.609	13.29
384.971	13.31
385.333	13.34
385.695	13.38
386.056	13.41
386.418	13.36
386.78	13.4
387.142	13.43
387.504	13.42
387.865	13.42
388.227	13.52
388.589	13.57
388.95	13.57
389.312	13.6
389.673	13.6
390.035	13.57
390.396	13.63
390.758	13.58
391.119	13.61
391.48	13.6
391.842	13.57
392.203	13.54
392.564	13.53
392.925	13.56
393.286	13.58
393.648	13.57
394.009	13.59
394.37	13.57
394.731	13.57
395.092	13.56
395.452	13.62
395.813	13.6
396.174	13.58
396.535	13.63
396.896	13.62
397.257	13.64
397.617	13.68
397.978	13.7
398.338	13.79
398.699	13.79
399.06	13.79
399.42	13.82
399.781	13.84
400.141	13.83
400.501	13.83
400.862	13.84
401.222	13.84
401.582	13.87
401.943	13.87
402.303	13.87
402.663	13.91
403.023	13.89
403.383	13.88
403.743	13.91
404.103	13.92
404.463	13.97
404.823	14.01
405.183	14.02
405.543	14.02
405.903	14
406.262	14.01
406.622	14
406.982	14.01
407.342	14.04
407.701	14.05
408.061	14.01
408.42	14.05
408.78	14.09
409.139	14.09
409.499	14.11
409.858	14.14
410.217	14.14
410.577	14.13
410.936	14.14
411.295	14.16
411.655	14.12
412.014	14.06
412.373	14.01
412.732	13.96
413.091	13.97
413.45	13.95
413.809	13.92
414.168	13.89
414.527	13.84
414.886	13.76
415.245	13.7
415.603	13.64
415.962	13.55
416.321	13.44
416.679	13.37
417.038	13.29
417.397	13.2
417.755	13.12
418.114	13.07
418.472	13
418.831	12.95
419.189	12.92
419.547	12.87
419.906	12.81
420.264	12.76
420.622	12.69
420.981	12.63
421.339	12.59
421.697	12.54
422.055	12.51
422.413	12.49
422.771	12.47
423.129	12.47
423.487	12.47
423.845	12.49
424.203	12.49
424.56	12.5
424.918	12.51
425.276	12.56
425.634	12.6
425.991	12.61
426.349	12.62
426.707	12.65
427.064	12.67
427.422	12.72
427.779	12.76
428.137	12.83
428.494	12.91
428.851	12.95
429.209	12.99
429.566	13
429.923	13.04
430.28	13.07
430.637	13.08
430.995	13.07
431.352	13.09
431.709	13.1
432.066	13.15
432.423	13.18
432.78	13.18
433.137	13.2
433.493	13.24
433.85	13.25
434.207	13.24
434.564	13.27
434.92	13.28
435.277	13.3
435.634	13.3
435.99	13.29
436.347	13.31
436.703	13.36
437.06	13.39
437.416	13.41
437.773	13.41
438.129	13.42
438.485	13.45
438.841	13.44
439.198	13.45
439.554	13.44
439.91	13.44
440.266	13.42
440.622	13.38
440.978	13.36
441.334	13.33
441.69	13.3
442.046	13.26
442.402	13.21
442.758	13.16
443.113	13.13
443.469	13.1
443.825	13.06
444.181	13.02
444.536	13
444.892	12.97
445.247	12.94
445.603	12.92
445.958	12.9
446.314	12.88
446.669	12.85
447.025	12.84
447.38	12.82
447.735	12.81
448.09	12.81
448.446	12.8
448.801	12.79
449.156	12.78
449.511	12.77
449.866	12.79
450.221	12.82
450.576	12.81
450.931	12.82
451.286	12.82
451.641	12.82
451.995	12.83
452.35	12.85
452.705	12.87
453.06	12.9
453.414	12.92
453.769	12.95
454.123	12.94
454.478	12.94
454.832	12.95
455.187	12.93
455.541	12.94
455.896	12.93
456.25	12.93
456.604	12.96
456.958	12.98
457.313	13.01
457.667	13.04
458.021	13.08
458.375	13.13
458.729	13.19
459.083	13.24
459.437	13.29
459.791	13.34
460.145	13.4
460.499	13.44
460.852	13.49
461.206	13.54
461.56	13.63
461.914	13.69
462.267	13.77
462.621	13.88
462.974	13.99
463.328	14.12
463.681	14.27
464.035	14.41
464.388	14.55
464.742	14.67
465.095	14.79
465.448	14.91
465.801	15.01
466.155	15.1
466.508	15.19
466.861	15.28
467.214	15.35
467.567	15.42
467.92	15.49
468.273	15.56
468.626	15.63
468.979	15.69
469.332	15.73
469.684	15.78
470.037	15.83
470.39	15.89
470.743	15.94
471.095	16.02
471.448	16.06
471.8	16.12
472.153	16.15
472.505	16.16
472.858	16.16
473.21	16.13
473.562	16.13
473.915	16.09
474.267	16.06
474.619	16.02
474.971	15.97
475.324	15.96
475.676	15.91
476.028	15.86
476.38	15.78
476.732	15.74
477.084	15.67
477.436	15.6
477.787	15.51
478.139	15.4
478.491	15.29
478.843	15.18
479.195	15.01
479.546	14.85
479.898	14.68
480.249	14.51
480.601	14.37
480.952	14.26
481.304	14.19
481.655	14.13
482.007	14.09
482.358	14.06
482.709	14.03
483.061	13.99
483.412	13.97
483.763	13.96
484.114	13.94
484.465	13.93
484.816	13.93
485.167	13.93
485.518	13.94
485.869	13.96
486.22	13.98
486.571	14.02
486.922	14.06
487.272	14.12
487.623	14.21
487.974	14.32
488.324	14.43
488.675	14.54
489.025	14.64
489.376	14.72
489.726	14.81
490.077	14.9
490.427	15.03
490.778	15.14
491.128	15.27
491.478	15.44
491.828	15.62
492.179	15.81
492.529	16
492.879	16.2
493.229	16.37
493.579	16.55
493.929	16.73
494.279	16.91
494.629	17.1
494.979	17.33
495.328	17.61
495.678	17.93
496.028	18.23
496.378	18.52
496.727	18.8
497.077	19.06
497.426	19.31
497.776	19.51
498.125	19.74
498.475	19.97
498.824	20.17
499.174	20.39
499.523	20.61
499.872	20.82
500.221	21.06
500.571	21.3
500.92	21.55
501.269	21.77
501.618	21.97
501.967	22.22
502.316	22.46
502.665	22.69
503.014	22.9
503.363	23.12
503.711	23.31
504.06	23.5
504.409	23.68
504.758	23.86
505.106	24.06
505.455	24.21
505.803	24.36
506.152	24.51
506.5	24.62
506.849	24.76
507.197	24.88
507.546	25.02
507.894	25.15
508.242	25.29
508.59	25.41
508.939	25.54
509.287	25.64
509.635	25.74
509.983	25.84
510.331	25.94
510.679	26.03
511.027	26.13
511.375	26.23
511.723	26.34
512.07	26.41
512.418	26.5
512.766	26.61
513.114	26.71
513.461	26.8
513.809	26.92
514.156	26.99
514.504	27.08
514.851	27.16
515.199	27.24
515.546	27.29
515.893	27.39
516.241	27.48
516.588	27.54
516.935	27.61
517.282	27.68
517.63	27.74
517.977	27.81
518.324	27.89
518.671	27.96
519.018	28.02
519.365	28.1
519.711	28.15
520.058	28.2
520.405	28.25
520.752	28.3
521.099	28.37
521.445	28.45
521.792	28.51
522.138	28.58
522.485	28.65
522.832	28.74
523.178	28.8
523.524	28.87
523.871	28.96
524.217	29
524.563	29.04
524.91	29.1
525.256	29.13
525.602	29.14
525.948	29.16
526.294	29.18
526.64	29.2
526.986	29.24
527.332	29.25
527.678	29.29
528.024	29.33
528.37	29.36
528.716	29.39
529.061	29.43
529.407	29.47
529.753	29.5
530.098	29.54
530.444	29.57
530.789	29.58
531.135	29.62
531.48	29.66
531.826	29.71
532.171	29.76
532.516	29.83
532.862	29.92
533.207	29.98
533.552	30.04
533.897	30.1
534.242	30.14
534.587	30.2
534.932	30.23
535.277	30.27
535.622	30.3
535.967	30.35
536.312	30.4
536.657	30.44
537.001	30.53
537.346	30.59
537.691	30.66
538.035	30.72
538.38	30.72
538.724	30.77
539.069	30.81
539.413	30.85
539.758	30.89
540.102	30.93
540.446	30.96
540.791	31.04
541.135	31.07
541.479	31.11
541.823	31.14
542.167	31.18
542.512	31.2
542.856	31.23
543.2	31.24
543.543	31.26
543.887	31.29
544.231	31.34
544.575	31.41
544.919	31.47
545.262	31.55
545.606	31.65
545.95	31.69
546.293	31.74
546.637	31.8
546.98	31.88
547.324	31.94
547.667	32.02
548.011	32.03
548.354	32.08
548.697	32.14
549.04	32.18
549.384	32.19
549.727	32.27
550.07	32.34
550.413	32.42
550.756	32.48
551.099	32.56
551.442	32.58
551.785	32.6
552.128	32.64
552.47	32.68
552.813	32.72
553.156	32.77
553.499	32.83
553.841	32.83
554.184	32.83
554.526	32.85
554.869	32.9
555.211	32.93
555.554	32.97
555.896	33
556.238	33.05
556.581	33.1
556.923	33.08
557.265	33.08
557.607	33.11
557.949	33.13
558.291	33.16
558.633	33.16
558.975	33.17
559.317	33.21
559.659	33.22
560.001	33.24
560.343	33.24
560.685	33.22
561.026	33.23
561.368	33.21
561.71	33.21
562.051	33.16
562.393	33.21
562.734	33.21
563.076	33.19
563.417	33.2
563.759	33.21
564.1	33.24
564.441	33.25
564.782	33.22
565.124	33.21
565.465	33.17
565.806	33.21
566.147	33.22
566.488	33.21
566.829	33.2
567.17	33.17
567.511	33.19
567.851	33.24
568.192	33.26
568.533	33.28
568.874	33.32
569.214	33.36
569.555	33.33
569.895	33.34
570.236	33.35
570.576	33.36
570.917	33.39
571.257	33.38
571.598	33.41
571.938	33.45
572.278	33.49
572.618	33.53
572.959	33.54
573.299	33.57
573.639	33.6
573.979	33.62
574.319	33.65
574.659	33.68
574.999	33.67
575.339	33.69
575.678	33.74
576.018	33.74
576.358	33.77
576.698	33.78
577.037	33.78
577.377	33.8
577.716	33.81
578.056	33.84
578.395	33.87
578.735	33.86
579.074	33.83
579.413	33.83
579.753	33.83
580.092	33.85
580.431	33.85
580.77	33.84
581.109	33.88
581.448	33.84
581.787	33.82
582.126	33.87
582.465	33.87
582.804	33.85
583.143	33.86
583.482	33.84
583.82	33.87
584.159	33.9
584.498	33.91
584.836	33.92
585.175	33.92
585.514	33.93
585.852	33.96
586.19	34.02
586.529	34.03
586.867	34.04
587.205	34.06
587.544	34.06
587.882	34.08
588.22	34.09
588.558	34.16
588.896	34.22
589.234	34.23
589.572	34.24
589.91	34.26
590.248	34.28
590.586	34.31
590.924	34.32
591.262	34.38
591.599	34.38
591.937	34.42
592.275	34.39
592.612	34.39
592.95	34.43
593.287	34.39
593.625	34.43
593.962	34.46
594.299	34.48
594.637	34.53
594.974	34.55
595.311	34.59
595.648	34.59
595.985	34.56
596.322	34.55
596.659	34.58
596.996	34.57
597.333	34.58
597.67	34.56
598.007	34.6
598.344	34.55
598.681	34.57
599.017	34.55
599.354	34.55
599.691	34.6
600.027	34.58
600.364	34.6
600.7	34.59
601.037	34.61
601.373	34.64
601.71	34.66
602.046	34.69
602.382	34.68
602.718	34.71
603.054	34.7
603.391	34.72
603.727	34.74
604.063	34.77
604.399	34.76
604.735	34.8
605.071	34.79
605.406	34.81
605.742	34.84
606.078	34.88
606.414	34.94
606.749	34.92
607.085	34.94
607.421	34.95
607.756	34.98
608.092	34.96
608.427	34.93
608.762	34.9
609.098	34.88
609.433	34.87
609.768	34.87
610.104	34.9
610.439	34.89
610.774	34.87
611.109	34.85
611.444	34.87
611.779	34.89
612.114	34.84
612.449	34.85
612.784	34.82
613.118	34.81
613.453	34.79
613.788	34.82
614.123	34.8
614.457	34.84
614.792	34.84
615.126	34.84
615.461	34.85
615.795	34.83
616.13	34.85
616.464	34.89
616.798	34.88
617.132	34.94
617.467	34.95
617.801	34.94
618.135	34.99
618.469	35.01
618.803	34.97
619.137	35
619.471	35.08
619.805	35.1
620.139	35.05
620.472	35.06
620.806	35.05
621.14	35.04
621.473	35.03
621.807	35.03
622.141	35.05
622.474	35.08
622.808	35.11
623.141	35.14
623.474	35.14
623.808	35.19
624.141	35.18
624.474	35.17
624.807	35.19
625.141	35.14
625.474	35.12
625.807	35.19
626.14	35.23
626.473	35.18
626.806	35.25
627.138	35.29
627.471	35.26
627.804	35.23
628.137	35.25
628.469	35.26
628.802	35.24
629.135	35.28
629.467	35.24
629.8	35.22
630.132	35.23
630.465	35.22
630.797	35.2
631.129	35.19
631.461	35.21
631.794	35.24
632.126	35.28
632.458	35.36
632.79	35.37
633.122	35.35
633.454	35.37
633.786	35.34
634.118	35.37
634.45	35.39
634.781	35.47
635.113	35.45
635.445	35.48
635.777	35.52
636.108	35.53
636.44	35.58
636.771	35.57
637.103	35.52
637.434	35.55
637.765	35.54
638.097	35.52
638.428	35.48
638.759	35.49
639.09	35.5
639.422	35.43
639.753	35.34
640.084	35.39
640.415	35.38
640.746	35.39
641.077	35.35
641.407	35.36
641.738	35.36
642.069	35.38
642.4	35.39
642.73	35.34
643.061	35.27
643.392	35.24
643.722	35.23
644.053	35.22
644.383	35.14
644.713	35.19
645.044	35.21
645.374	35.25
645.704	35.27
646.034	35.25
646.365	35.27
646.695	35.33
647.025	35.31
647.355	35.32
647.685	35.3
648.015	35.36
648.344	35.4
648.674	35.37
649.004	35.43
649.334	35.43
649.663	35.48
649.993	35.52
650.323	35.57
650.652	35.65
650.982	35.7
651.311	35.77
651.64	35.7
651.97	35.73
652.299	35.73
652.628	35.7
652.958	35.77
653.287	35.78
653.616	35.81
653.945	35.82
654.274	35.88
654.603	35.86
654.932	35.84
655.261	35.87
655.589	35.98
655.918	36
656.247	36.1
656.576	36.12
656.904	36.22
657.233	36.27
657.561	36.25
657.89	36.31
658.218	36.28
658.547	36.36
658.875	36.36
659.203	36.4
659.532	36.43
659.86	36.37
660.188	36.39
660.516	36.41
660.844	36.44
661.172	36.45
661.5	36.49
661.828	36.49
662.156	36.44
662.484	36.42
662.811	36.42
663.139	36.38
663.467	36.4
663.794	36.34
664.122	36.32
664.45	36.38
664.777	36.36
665.104	36.44
665.432	36.32
665.759	36.34
666.086	36.36
666.414	36.39
666.741	36.47
667.068	36.49
667.395	36.46
667.722	36.45
668.049	36.45
668.376	36.41
668.703	36.44
669.03	36.49
669.357	36.49
669.683	36.49
670.01	36.51
670.337	36.52
670.663	36.47
670.99	36.48
671.317	36.53
671.643	36.56
671.969	36.58
672.296	36.64
672.622	36.68
672.948	36.65
673.275	36.68
673.601	36.67
673.927	36.64
674.253	36.73
674.579	36.74
674.905	36.67
675.231	36.72
675.557	36.75
675.883	36.81
676.209	36.82
676.534	36.76
676.86	36.72
677.186	36.77
677.511	36.87
677.837	36.89
678.162	36.84
678.488	36.83
678.813	36.84
679.139	36.92
679.464	36.91
679.789	36.96
680.114	37.02
680.44	37.03
680.765	37.02
681.09	36.93
681.415	36.95
681.74	37.05
682.065	37.17
682.39	37.18
682.714	37.15
683.039	37.07
683.364	37.15
683.689	37.23
684.013	37.23
684.338	37.25
684.662	37.25
684.987	37.25
685.311	37.34
685.636	37.33
685.96	37.29
686.284	37.28
686.608	37.25
686.933	37.2
687.257	37.17
687.581	37.25
687.905	37.35
688.229	37.38
688.553	37.35
688.877	37.26
689.201	37.26
689.524	37.28
689.848	37.38
690.172	37.47
690.496	37.46
690.819	37.35
691.143	37.31
691.466	37.37
691.79	37.36
692.113	37.26
692.436	37.27
692.76	37.36
693.083	37.38
693.406	37.49
693.729	37.47
694.053	37.59
694.376	37.57
694.699	37.5
695.022	37.66
695.344	37.81
695.667	37.95
695.99	38
696.313	38.13
696.636	38.22
696.958	38.2
697.281	38.2
697.604	38.27
697.926	38.26
698.249	38.26
698.571	38.29
698.893	38.34
699.216	38.35
699.538	38.38
699.86	38.36
700.182	38.35
700.504	38.3
700.827	38.21
701.149	38.29
701.471	38.31
701.793	38.24
702.114	38.13
702.436	38
702.758	37.99
703.08	37.88
703.401	37.69
703.723	37.62
704.045	37.56
704.366	37.52
704.688	37.61
705.009	37.56
705.331	37.53
705.652	37.48
705.973	37.43
706.294	37.32
706.616	37.38
706.937	37.36
707.258	37.45
707.579	37.59
707.9	37.58
708.221	37.63
708.542	37.61
708.863	37.63
709.183	37.75
709.504	37.74
709.825	37.74
710.145	37.77
710.466	37.74
710.787	37.74
711.107	37.82
711.427	37.83
711.748	37.85
712.068	37.96
712.388	38.01
712.709	38.1
713.029	38.1
713.349	38.01
713.669	37.97
713.989	38.09
714.309	38.12
714.629	38.13
714.949	38.15
715.269	38.16
715.589	38.13
715.908	38
716.228	38.08
716.548	38.13
716.867	38.23
717.187	38.36
717.506	38.48
717.826	38.51
718.145	38.6
718.465	38.58
718.784	38.51
719.103	38.55
719.422	38.68
719.741	38.85
720.061	39.08
720.38	39.16
720.699	39.08
721.018	39.05
721.336	39.11
721.655	39.14
721.974	39.32
722.293	39.39
722.612	39.52
722.93	39.64
723.249	39.83
723.567	39.9
723.886	40.02
724.204	40.07
724.523	40.23
724.841	40.18
725.159	40.46
725.477	40.63
725.796	40.65
726.114	40.64
726.432	40.63
726.75	40.73
727.068	40.88
727.386	41.13
727.704	41.4
728.022	41.37
728.339	41.48
728.657	41.41
728.975	41.56
729.292	41.67
729.61	41.72
729.928	41.69
730.245	41.73
730.562	41.79
730.88	41.91
731.197	41.94
731.514	42.1
731.832	42.16
732.149	42.21
732.466	42.37
732.783	42.53
733.1	42.67
733.417	42.86
733.734	42.86
734.051	42.82
734.368	42.89
734.684	43.04
735.001	43.18
735.318	43.36
735.634	43.39
735.951	43.63
736.268	43.76
736.584	43.76
736.9	44.02
737.217	43.96
737.533	44.02
737.849	44.13
738.166	44.24
738.482	44.15
738.798	44.37
739.114	44.52
739.43	44.45
739.746	44.57
740.062	44.56
740.378	44.87
740.693	44.98
741.009	44.96
741.325	45.19
741.641	45.3
741.956	45.46
742.272	45.49
742.587	45.64
742.903	45.71
743.218	45.96
743.533	45.9
743.849	46.03
744.164	46.13
744.479	46.1
744.794	46.13
745.109	46.28
745.424	46.1
745.739	46.13
746.054	46.47
746.369	46.65
746.684	46.63
746.999	46.72
747.313	46.85
747.628	47.01
747.943	46.96
748.257	46.88
748.572	46.78
748.886	47.15
749.201	46.89
749.515	46.98
749.829	47.09
750.144	47.21
750.458	47.38
750.772	47.48
751.086	47.53
751.4	47.73
751.714	47.74
752.028	48.03
752.342	48.08
752.656	47.82
752.97	47.79
753.284	47.92
753.597	47.8
753.911	47.84
754.225	47.89
754.538	47.79
754.852	47.94
755.165	48.07
755.478	47.96
755.792	48.05
756.105	48
756.418	47.97
756.731	47.99
757.045	48.1
757.358	48.1
757.671	48.11
757.984	48.14
758.297	48.42
758.609	48.5
758.922	48.47
759.235	48.7
759.548	48.58
759.86	48.58
760.173	48.42
760.486	48.29
760.798	48.18
761.111	48.26
761.423	48.25
761.735	48.02
762.048	48
762.36	47.97
762.672	47.95
762.984	48.14
763.296	48.25
763.608	48.24
763.92	48.44
764.232	48.56
764.544	48.51
764.856	48.54
765.168	48.46
765.48	48.46
765.791	48.59
766.103	48.81
766.414	48.9
766.726	49.24
767.037	49.5
767.349	49.6
767.66	49.85
767.972	49.99
768.283	50.46
768.594	50.73
768.905	51.07
769.216	51.25
769.527	51.17
769.838	51.3
770.149	51.65
770.46	51.72
770.771	51.79
771.082	52.06
771.393	52.05
771.703	52.23
772.014	52.56
772.324	52.75
772.635	52.94
772.945	53.14
773.256	53.19
773.566	53.33
773.877	53.74
774.187	53.93
774.497	54.08
774.807	54.27
775.117	54.51
775.427	54.6
775.737	54.94
776.047	55.14
776.357	55.3
776.667	55.14
776.977	55.32
777.287	55.55
777.596	55.68
777.906	55.86
778.216	56.06
778.525	56.24
778.835	56.21
779.144	56.19
779.453	56.11
779.763	56.08
780.072	56.25
780.381	56.13
780.69	56.17
781	56.22
781.309	56.25
781.618	56.3
781.927	56.62
782.235	56.45
782.544	56.66
782.853	56.54
783.162	56.73
783.471	56.85
783.779	56.86
784.088	56.54
784.396	56.46
784.705	56.48
785.013	56.48
785.322	56.41
785.63	56.13
785.938	56.13
786.246	56.24
786.554	56.23
786.863	56.23
787.171	56.13
787.479	56.28
787.787	56.47
788.094	56.17
788.402	55.85
788.71	55.87
789.018	55.48
789.326	55.62
789.633	55.58
789.941	55.35
790.248	55.42
790.556	55.62
790.863	55.71
791.171	55.52
791.478	55.62
791.785	55.59
792.092	55.87
792.399	56.01
792.707	55.91
793.014	56.25
793.321	56.53
793.628	56.59
793.934	56.45
794.241	56.34
794.548	56.39
794.855	56.56
795.161	56.74
795.468	56.93
795.775	56.97
796.081	56.76
796.388	56.78
796.694	56.86
797	57.01
797.307	57.02
797.613	57.04
797.919	56.86
798.225	57.02
798.531	57.04
798.837	57.03
799.143	57.22
799.449	56.91
799.755	56.82
800.061	57.23
800.367	57.4
800.672	57.55
800.978	57.69
801.284	57.99
801.589	57.9
801.895	58.05
802.2	58.6
802.506	59
802.811	58.82
803.116	58.6
803.421	58.8
803.727	58.88
804.032	59.26
804.337	59.39
804.642	59.45
804.947	59.57
805.252	59.8
805.556	60.31
805.861	60.31
806.166	60.52
806.471	60.25
806.775	60.38
807.08	60.57
807.384	61.03
807.689	61.01
807.993	61.4
808.298	61.38
808.602	60.93
808.906	61.17
809.211	61.4
809.515	61.6
809.819	61.27
810.123	61.47
810.427	61.37
810.731	61.22
811.035	61.23
811.338	61.7
811.642	61.77
811.946	61.52
812.25	61.8
812.553	61.64
812.857	61.56
813.16	61.58
813.464	61.55
813.767	61.28
814.07	60.96
814.374	60.57
814.677	60.59
814.98	60.53
815.283	60.15
815.586	60.15
815.889	60.12
816.192	60.36
816.495	60.59
816.798	60.78
817.101	60.86
817.404	60.73
817.706	60.06
818.009	59.4
818.312	58.6
818.614	57.67
818.917	56.83
819.219	55.74
819.521	54.45
819.824	53.34
820.126	52.4
820.428	51.84
820.73	51.4
821.032	51.06
821.334	50.69
821.636	50.44
821.938	50.33
822.24	50.2
822.542	49.99
822.844	49.89
823.145	49.76
823.447	49.67
823.749	49.6
824.05	49.45
824.352	49.36
824.653	49.32
824.955	49.28
825.256	49.25
825.557	49.31
825.858	49.43
826.16	49.57
826.461	49.89
826.762	50.01
827.063	50.24
827.364	50.45
827.665	50.84
827.965	51.33
828.266	51.69
828.567	52.1
828.868	52.45
829.168	52.61
829.469	52.93
829.769	53.2
830.07	53.38
830.37	53.97
830.67	54.33
830.971	54.73
831.271	54.93
831.571	55.24
831.871	55.43
832.171	55.55
832.471	55.4
832.771	55.01
833.071	55.27
833.371	55.6
833.671	55.75
833.971	55.86
834.27	55.66
834.57	55.62
834.869	55.43
835.169	55.71
835.468	55.71
835.768	55.77
836.067	56
836.367	56.23
836.666	56.32
836.965	56.97
837.264	57.37
837.563	58.3
837.862	58.77
838.161	59.36
838.46	60.05
838.759	61.01
839.058	62.21
839.356	63.1
839.655	63.49
839.954	64.61
840.252	64.86
840.551	65.03
840.849	64.86
841.148	65.69
841.446	65.96
841.744	66.01
842.043	66.3
842.341	66.07
842.639	66.45
842.937	66.72
843.235	66.5
843.533	66.32
843.831	66.51
844.129	67.33
844.427	67.75
844.724	67.65
845.022	67.4
845.32	68.2
845.617	68.81
845.915	69.65
846.212	69.68
846.51	70.66
846.807	71.86
847.104	72.39
847.402	71.95
847.699	72.49
847.996	73.14
848.293	73.01
848.59	73.4
848.887	72.89
849.184	72.81
849.481	72.94
849.778	73.6
850.074	74.78
850.371	74.84
850.668	76.23
850.964	77.96
851.261	79.5
851.557	79.22
851.854	79.17
852.15	78.68
852.446	77.93
852.743	77.56
853.039	77.11
853.335	77.68
853.631	78.27
853.927	78.47
854.223	78.52
854.519	78.98
854.815	78.62
855.111	79.05
855.406	80.32
855.702	80.9
855.998	82.08
856.293	82.2
856.589	82.96
856.884	81.88
857.18	81.77
857.475	81.49
857.77	81.31
858.066	81.09
858.361	81.21
858.656	81
858.951	80.91
859.246	80.83
859.541	81.16
859.836	80.65
860.131	80.1
860.426	80.39
860.72	80.42
861.015	80.45
861.31	80.87
861.604	80.3
861.899	80.71
862.193	79.66
862.487	78.56
862.782	77.84
863.076	78.04
863.37	77.13
863.664	76.96
863.959	77.55
864.253	78.58
864.547	79.31
864.841	80.95
865.135	81.57
865.428	82
865.722	81.83
866.016	82
866.31	81.5
866.603	80.7
866.897	81.09
867.19	81.69
867.484	81.22
867.777	80.83
868.07	80.52
868.364	81.68
868.657	82.67
868.95	82.59
869.243	82
869.536	82.86
869.829	83.49
870.122	82.69
870.415	80.98
870.708	79.53
871	78.28
871.293	78.37
871.586	78.24
871.878	77.2
872.171	76.88
872.463	77.16
872.756	77.83
873.048	76.86
873.341	76.34
873.633	76.06
873.925	75.89
874.217	75.64
874.509	74.58
874.801	73.07
875.093	72.61
875.385	73.12
875.677	72.76
875.969	71.95
