Data from pcis_c_h1_p5_Reflection_1.txt Node
Date: Wed Jul 12 17:28:43 ART 2017
User: rodoncho
Spectrometer: USB2E3644
Trigger mode: 4
Integration Time (sec): 6.000000E-2
Scans to average: 10
Electric dark correction enabled: true
Nonlinearity correction enabled: false
Boxcar width: 10
XAxis mode: Wavelengths
Number of Pixels in Spectrum: 2048
>>>>>Begin Spectral Data<<<<<
178.315	6.29
178.696	-700
179.076	262.64
179.457	1053.85
179.838	163.41
180.218	87.95
180.599	18.81
180.979	333.33
181.36	77.39
181.74	19.55
182.121	-113.19
182.501	64.4
182.881	62.48
183.262	51.66
183.642	18.5
184.022	-108.63
184.402	583.08
184.783	238.91
185.163	230.31
185.543	200.82
185.923	196.52
186.303	169.75
186.683	158.66
187.063	151.77
187.443	158.16
187.823	149.48
188.203	140
188.583	142.04
188.963	152.38
189.343	148.51
189.723	141.09
190.102	131.71
190.482	131.62
190.862	134.23
191.242	130.16
191.621	127.76
192.001	127.33
192.38	132.79
192.76	129.37
193.14	125.07
193.519	125.76
193.898	126.19
194.278	127.45
194.657	125.56
195.037	125.32
195.416	122.48
195.795	123.36
196.175	124.77
196.554	121.1
196.933	117.68
197.312	117.26
197.692	116.8
198.071	118.58
198.45	116.73
198.829	115.7
199.208	115.73
199.587	116.31
199.966	116.41
200.345	114.58
200.724	116.21
201.103	115.96
201.482	114.35
201.86	112.17
202.239	111.98
202.618	112.19
202.997	111.29
203.375	111.93
203.754	110.82
204.133	111.23
204.511	112.8
204.89	113.4
205.269	112.45
205.647	112.51
206.026	111.22
206.404	110.51
206.782	109.73
207.161	112.05
207.539	111.95
207.918	111.36
208.296	110.83
208.674	109.21
209.052	109.17
209.431	109.35
209.809	109.9
210.187	109.04
210.565	108.82
210.943	108.01
211.321	108.57
211.699	109.5
212.077	108.97
212.455	107.43
212.833	106.27
213.211	105.61
213.589	104.34
213.967	104.74
214.345	105.09
214.722	106.53
215.1	104.58
215.478	103.54
215.855	103.09
216.233	103.27
216.611	104.89
216.988	104.2
217.366	104.47
217.743	104.82
218.121	106.38
218.498	106.06
218.876	107.25
219.253	106.43
219.631	105.48
220.008	105.49
220.385	105.83
220.762	106.29
221.14	107.31
221.517	107.55
221.894	106.37
222.271	106.24
222.648	105.85
223.025	106.04
223.402	107.33
223.78	107.74
224.157	108.41
224.533	107.68
224.91	109.1
225.287	110.28
225.664	111.34
226.041	109.85
226.418	110.39
226.795	110.44
227.171	110.88
227.548	109.82
227.925	109.83
228.301	111.05
228.678	109.9
229.055	109.49
229.431	109.84
229.808	110
230.184	109.42
230.561	110.1
230.937	112.01
231.313	112.59
231.69	113.2
232.066	112.94
232.442	113.36
232.819	114.12
233.195	113.84
233.571	114.3
233.947	115.69
234.323	116.68
234.699	116.94
235.075	117.6
235.451	120.16
235.827	120.08
236.203	120.72
236.579	122.54
236.955	124.81
237.331	127.85
237.707	132
238.083	136.44
238.459	139.21
238.834	144.62
239.21	150.16
239.586	156.33
239.961	161.1
240.337	165.11
240.713	167.81
241.088	171.89
241.464	174.92
241.839	178.82
242.215	184.08
242.59	196.22
242.965	222.25
243.341	270.95
243.716	362.48
244.091	514.93
244.467	758.34
244.842	1200.12
245.217	2471.01
245.592	6000.6
245.967	58982.35
246.343	-143928.57
246.718	5618.44
247.093	7279.56
247.468	18579.25
247.843	-8599.13
248.218	-2240.32
248.593	-1152.66
248.967	-776.64
249.342	-650.03
249.717	-597.83
250.092	-583.71
250.467	-649.43
250.841	-955.1
251.216	-4463.13
251.591	1501.53
251.965	723.95
252.34	530.21
252.714	464.47
253.089	417.64
253.463	399.48
253.838	412.93
254.212	442.11
254.587	508.31
254.961	607.03
255.335	929.45
255.71	43334.78
256.084	-715.14
256.458	-345.79
256.832	-241.72
257.206	-200.6
257.581	-179.65
257.955	-168.76
258.329	-162.34
258.703	-152.94
259.077	-143.69
259.451	-135.76
259.825	-130.13
260.199	-124.38
260.572	-122.46
260.946	-116.92
261.32	-113.42
261.694	-110.84
262.068	-108.35
262.441	-106.16
262.815	-104.75
263.189	-105.24
263.562	-111.4
263.936	-128.85
264.309	-156.78
264.683	-186.69
265.056	-207.38
265.43	-216.95
265.803	-213.98
266.176	-201.6
266.55	-199.25
266.923	-191.65
267.296	-182.84
267.67	-168.8
268.043	-158.98
268.416	-143.62
268.789	-132.89
269.162	-119.89
269.535	-112.88
269.908	-107.69
270.281	-104.19
270.654	-103.57
271.027	-107.02
271.4	-108.67
271.773	-108.78
272.146	-108.34
272.519	-104.63
272.891	-101.09
273.264	-100.19
273.637	-99.24
274.01	-100.77
274.382	-98.8
274.755	-97.11
275.127	-96.93
275.5	-97.97
275.872	-96.11
276.245	-95.53
276.617	-97.05
276.99	-101.33
277.362	-104.25
277.734	-104.32
278.107	-102.02
278.479	-98.04
278.851	-93.44
279.223	-89.77
279.596	-87.05
279.968	-84.68
280.34	-84.64
280.712	-83.09
281.084	-77.88
281.456	-71.73
281.828	-65.61
282.2	-60.55
282.572	-57.27
282.944	-54.32
283.315	-53
283.687	-52.66
284.059	-52.73
284.431	-51.76
284.802	-51.23
285.174	-49.53
285.546	-48.49
285.917	-48.71
286.289	-47.55
286.66	-46.08
287.032	-46.15
287.403	-45.46
287.775	-44.88
288.146	-44.39
288.518	-44.12
288.889	-44.58
289.26	-46.16
289.632	-47.44
290.003	-48.95
290.374	-49.69
290.745	-50.77
291.116	-50.22
291.487	-49.04
291.858	-47.82
292.229	-46.96
292.6	-45.21
292.971	-44
293.342	-41.76
293.713	-39.03
294.084	-37.57
294.455	-36.94
294.826	-35.46
295.196	-35.25
295.567	-35.12
295.938	-34.67
296.308	-34.75
296.679	-33.92
297.05	-32.95
297.42	-32.51
297.791	-32.1
298.161	-31.55
298.532	-30.77
298.902	-30.43
299.272	-29.93
299.643	-28.86
300.013	-28.14
300.383	-27.7
300.754	-27.1
301.124	-27.23
301.494	-27.64
301.864	-27.96
302.234	-28.06
302.604	-28.3
302.974	-28.12
303.344	-27.82
303.714	-27.7
304.084	-26.76
304.454	-26.53
304.824	-25.68
305.194	-24.72
305.563	-23.55
305.933	-22.27
306.303	-21.09
306.673	-20.45
307.042	-19.82
307.412	-19.29
307.781	-18.47
308.151	-17.58
308.521	-17.11
308.89	-16.92
309.259	-16.67
309.629	-16.41
309.998	-16.29
310.368	-16.19
310.737	-15.95
311.106	-15.91
311.475	-15.45
311.845	-15.06
312.214	-14.45
312.583	-14.09
312.952	-13.58
313.321	-13.46
313.69	-13.77
314.059	-14.17
314.428	-14.06
314.797	-14.22
315.166	-14.82
315.535	-15.35
315.904	-15.68
316.272	-16.08
316.641	-16.21
317.01	-15.93
317.379	-15.83
317.747	-15.46
318.116	-15.06
318.484	-14.64
318.853	-13.68
319.221	-13.09
319.59	-13.03
319.958	-12.97
320.327	-13.11
320.695	-13
321.063	-13
321.432	-12.57
321.8	-11.75
322.168	-10.8
322.536	-10.06
322.905	-9.12
323.273	-8.54
323.641	-8.11
324.009	-7.83
324.377	-7.57
324.745	-7.29
325.113	-6.94
325.481	-6.44
325.849	-5.88
326.216	-5.33
326.584	-5.04
326.952	-4.75
327.32	-4.22
327.687	-3.84
328.055	-3.28
328.423	-2.94
328.79	-2.43
329.158	-2.14
329.525	-1.74
329.893	-1.72
330.26	-1.69
330.628	-1.69
330.995	-1.51
331.362	-1.31
331.73	-0.7
332.097	-0.12
332.464	0.42
332.831	0.78
333.199	1.11
333.566	1.34
333.933	1.38
334.3	1.51
334.667	1.72
335.034	1.93
335.401	1.96
335.768	2.01
336.135	2.2
336.502	2.41
336.868	2.57
337.235	2.58
337.602	2.89
337.969	3.23
338.335	3.52
338.702	3.87
339.069	4.23
339.435	4.42
339.802	4.58
340.168	4.61
340.535	4.79
340.901	4.76
341.267	4.89
341.634	5.26
342	5.56
342.366	5.78
342.733	5.89
343.099	6.19
343.465	6.54
343.831	6.84
344.197	7
344.563	7.22
344.929	7.46
345.295	7.73
345.661	7.97
346.027	8.2
346.393	8.35
346.759	8.38
347.125	8.49
347.491	8.66
347.856	8.8
348.222	8.92
348.588	9.16
348.953	9.24
349.319	9.36
349.684	9.49
350.05	9.57
350.415	9.77
350.781	9.94
351.146	10.12
351.512	10.1
351.877	10.21
352.242	10.35
352.608	10.43
352.973	10.36
353.338	10.35
353.703	10.42
354.068	10.51
354.433	10.64
354.798	10.77
355.164	10.82
355.528	10.91
355.893	11.03
356.258	11.17
356.623	11.29
356.988	11.4
357.353	11.51
357.718	11.55
358.082	11.57
358.447	11.59
358.812	11.62
359.176	11.72
359.541	11.73
359.905	11.73
360.27	11.79
360.634	11.9
360.999	12.01
361.363	12.05
361.728	12.08
362.092	12.09
362.456	12.08
362.821	12.16
363.185	12.12
363.549	12.18
363.913	12.24
364.277	12.34
364.641	12.34
365.005	12.41
365.369	12.53
365.733	12.66
366.097	12.79
366.461	12.75
366.825	12.69
367.189	12.85
367.553	12.95
367.916	12.98
368.28	12.99
368.644	13.05
369.007	13.09
369.371	13.15
369.734	13.23
370.098	13.27
370.461	13.3
370.825	13.42
371.188	13.51
371.552	13.55
371.915	13.57
372.278	13.61
372.642	13.61
373.005	13.58
373.368	13.54
373.731	13.49
374.094	13.53
374.457	13.66
374.82	13.62
375.183	13.59
375.546	13.7
375.909	13.75
376.272	13.75
376.635	13.77
376.998	13.77
377.361	13.81
377.723	13.88
378.086	13.9
378.449	13.97
378.811	13.96
379.174	14
379.537	14.03
379.899	14.08
380.262	14.12
380.624	14.15
380.987	14.21
381.349	14.29
381.711	14.28
382.074	14.25
382.436	14.3
382.798	14.28
383.16	14.22
383.522	14.23
383.884	14.25
384.247	14.34
384.609	14.39
384.971	14.38
385.333	14.37
385.695	14.35
386.056	14.3
386.418	14.23
386.78	14.19
387.142	14.12
387.504	14.09
387.865	14
388.227	13.95
388.589	13.88
388.95	13.79
389.312	13.78
389.673	13.75
390.035	13.66
390.396	13.69
390.758	13.63
391.119	13.57
391.48	13.5
391.842	13.4
392.203	13.32
392.564	13.27
392.925	13.23
393.286	13.17
393.648	13.11
394.009	13.06
394.37	12.99
394.731	12.97
395.092	12.86
395.452	12.83
395.813	12.8
396.174	12.74
396.535	12.69
396.896	12.64
397.257	12.61
397.617	12.61
397.978	12.56
398.338	12.57
398.699	12.57
399.06	12.53
399.42	12.48
399.781	12.4
400.141	12.31
400.501	12.23
400.862	12.23
401.222	12.19
401.582	12.16
401.943	12.12
402.303	12.08
402.663	12.09
403.023	12.05
403.383	11.99
403.743	11.98
404.103	12
404.463	12.02
404.823	12.02
405.183	11.98
405.543	11.95
405.903	11.9
406.262	11.87
406.622	11.89
406.982	11.88
407.342	11.91
407.701	11.96
408.061	11.95
408.42	11.92
408.78	11.92
409.139	11.93
409.499	11.97
409.858	12
410.217	12.02
410.577	12.04
410.936	12.03
411.295	12.05
411.655	11.97
412.014	11.92
412.373	11.82
412.732	11.75
413.091	11.7
413.45	11.65
413.809	11.58
414.168	11.47
414.527	11.37
414.886	11.27
415.245	11.12
415.603	11.04
415.962	10.94
416.321	10.82
416.679	10.74
417.038	10.6
417.397	10.46
417.755	10.33
418.114	10.23
418.472	10.15
418.831	10.06
419.189	10.01
419.547	9.93
419.906	9.87
420.264	9.8
420.622	9.72
420.981	9.64
421.339	9.58
421.697	9.53
422.055	9.48
422.413	9.43
422.771	9.42
423.129	9.39
423.487	9.36
423.845	9.35
424.203	9.32
424.56	9.33
424.918	9.33
425.276	9.35
425.634	9.35
425.991	9.37
426.349	9.38
426.707	9.39
427.064	9.39
427.422	9.42
427.779	9.44
428.137	9.48
428.494	9.54
428.851	9.59
429.209	9.62
429.566	9.65
429.923	9.66
430.28	9.68
430.637	9.7
430.995	9.69
431.352	9.72
431.709	9.73
432.066	9.74
432.423	9.76
432.78	9.77
433.137	9.78
433.493	9.8
433.85	9.83
434.207	9.83
434.564	9.86
434.92	9.86
435.277	9.88
435.634	9.86
435.99	9.85
436.347	9.84
436.703	9.85
437.06	9.87
437.416	9.88
437.773	9.9
438.129	9.88
438.485	9.9
438.841	9.89
439.198	9.9
439.554	9.91
439.91	9.91
440.266	9.89
440.622	9.87
440.978	9.84
441.334	9.79
441.69	9.76
442.046	9.7
442.402	9.63
442.758	9.56
443.113	9.51
443.469	9.46
443.825	9.42
444.181	9.37
444.536	9.33
444.892	9.29
445.247	9.24
445.603	9.22
445.958	9.19
446.314	9.15
446.669	9.11
447.025	9.07
447.38	9.03
447.735	9.01
448.09	8.98
448.446	8.95
448.801	8.92
449.156	8.89
449.511	8.87
449.866	8.87
450.221	8.88
450.576	8.91
450.931	8.9
451.286	8.89
451.641	8.87
451.995	8.87
452.35	8.89
452.705	8.89
453.06	8.89
453.414	8.9
453.769	8.91
454.123	8.92
454.478	8.9
454.832	8.93
455.187	8.93
455.541	8.94
455.896	8.91
456.25	8.9
456.604	8.9
456.958	8.92
457.313	8.93
457.667	8.95
458.021	8.97
458.375	9.01
458.729	9.06
459.083	9.12
459.437	9.16
459.791	9.2
460.145	9.24
460.499	9.3
460.852	9.33
461.206	9.4
461.56	9.47
461.914	9.54
462.267	9.59
462.621	9.68
462.974	9.78
463.328	9.91
463.681	10.08
464.035	10.23
464.388	10.37
464.742	10.53
465.095	10.65
465.448	10.78
465.801	10.89
466.155	11.01
466.508	11.1
466.861	11.19
467.214	11.28
467.567	11.37
467.92	11.44
468.273	11.55
468.626	11.6
468.979	11.66
469.332	11.71
469.684	11.78
470.037	11.81
470.39	11.87
470.743	11.92
471.095	11.96
471.448	12.02
471.8	12.05
472.153	12.05
472.505	12.06
472.858	12.04
473.21	12.02
473.562	11.97
473.915	11.92
474.267	11.85
474.619	11.78
474.971	11.7
475.324	11.61
475.676	11.51
476.028	11.43
476.38	11.35
476.732	11.26
477.084	11.15
477.436	11.05
477.787	10.94
478.139	10.82
478.491	10.68
478.843	10.55
479.195	10.39
479.546	10.18
479.898	9.95
480.249	9.74
480.601	9.58
480.952	9.46
481.304	9.36
481.655	9.31
482.007	9.26
482.358	9.21
482.709	9.17
483.061	9.13
483.412	9.1
483.763	9.07
484.114	9.04
484.465	9.02
484.816	9.01
485.167	9
485.518	8.99
485.869	9
486.22	9.01
486.571	9.03
486.922	9.07
487.272	9.12
487.623	9.19
487.974	9.28
488.324	9.38
488.675	9.49
489.025	9.57
489.376	9.65
489.726	9.74
490.077	9.84
490.427	9.93
490.778	10.05
491.128	10.18
491.478	10.35
491.828	10.53
492.179	10.72
492.529	10.91
492.879	11.14
493.229	11.35
493.579	11.56
493.929	11.76
494.279	11.99
494.629	12.22
494.979	12.53
495.328	12.88
495.678	13.27
496.028	13.66
496.378	14.04
496.727	14.43
497.077	14.81
497.426	15.18
497.776	15.54
498.125	15.91
498.475	16.25
498.824	16.62
499.174	17
499.523	17.37
499.872	17.78
500.221	18.19
500.571	18.62
500.92	19.07
501.269	19.54
501.618	19.99
501.967	20.45
502.316	20.9
502.665	21.31
503.014	21.75
503.363	22.19
503.711	22.62
504.06	23.03
504.409	23.44
504.758	23.82
505.106	24.2
505.455	24.57
505.803	24.91
506.152	25.22
506.5	25.5
506.849	25.8
507.197	26.08
507.546	26.38
507.894	26.69
508.242	26.97
508.59	27.21
508.939	27.45
509.287	27.67
509.635	27.89
509.983	28.12
510.331	28.32
510.679	28.49
511.027	28.66
511.375	28.81
511.723	28.98
512.07	29.16
512.418	29.33
512.766	29.51
513.114	29.66
513.461	29.8
513.809	29.95
514.156	30.09
514.504	30.22
514.851	30.35
515.199	30.42
515.546	30.51
515.893	30.62
516.241	30.7
516.588	30.79
516.935	30.88
517.282	30.91
517.63	30.98
517.977	31.04
518.324	31.09
518.671	31.17
519.018	31.2
519.365	31.27
519.711	31.3
520.058	31.31
520.405	31.36
520.752	31.41
521.099	31.45
521.445	31.52
521.792	31.56
522.138	31.62
522.485	31.67
522.832	31.72
523.178	31.76
523.524	31.81
523.871	31.82
524.217	31.84
524.563	31.83
524.91	31.85
525.256	31.87
525.602	31.88
525.948	31.86
526.294	31.88
526.64	31.88
526.986	31.91
527.332	31.92
527.678	31.94
528.024	31.94
528.37	31.95
528.716	31.94
529.061	31.94
529.407	31.92
529.753	31.91
530.098	31.89
530.444	31.89
530.789	31.9
531.135	31.91
531.48	31.92
531.826	31.96
532.171	31.97
532.516	31.96
532.862	31.98
533.207	32
533.552	31.98
533.897	31.97
534.242	31.96
534.587	31.96
534.932	31.96
535.277	31.95
535.622	31.95
535.967	31.97
536.312	31.97
536.657	32.01
537.001	32.03
537.346	32.02
537.691	31.98
538.035	31.92
538.38	31.88
538.724	31.83
539.069	31.81
539.413	31.78
539.758	31.76
540.102	31.75
540.446	31.76
540.791	31.77
541.135	31.76
541.479	31.74
541.823	31.73
542.167	31.71
542.512	31.71
542.856	31.67
543.2	31.62
543.543	31.59
543.887	31.56
544.231	31.57
544.575	31.57
544.919	31.57
545.262	31.57
545.606	31.58
545.95	31.56
546.293	31.54
546.637	31.55
546.98	31.53
547.324	31.51
547.667	31.46
548.011	31.43
548.354	31.4
548.697	31.38
549.04	31.33
549.384	31.29
549.727	31.25
550.07	31.22
550.413	31.22
550.756	31.2
551.099	31.22
551.442	31.18
551.785	31.15
552.128	31.16
552.47	31.15
552.813	31.09
553.156	31.08
553.499	31.05
553.841	31.01
554.184	31.01
554.526	30.98
554.869	30.93
555.211	30.91
555.554	30.9
555.896	30.87
556.238	30.91
556.581	30.9
556.923	30.85
557.265	30.83
557.607	30.83
557.949	30.79
558.291	30.7
558.633	30.65
558.975	30.6
559.317	30.54
559.659	30.48
560.001	30.46
560.343	30.42
560.685	30.38
561.026	30.3
561.368	30.23
561.71	30.16
562.051	30.1
562.393	30.06
562.734	29.94
563.076	29.87
563.417	29.77
563.759	29.72
564.1	29.72
564.441	29.71
564.782	29.65
565.124	29.59
565.465	29.57
565.806	29.53
566.147	29.48
566.488	29.48
566.829	29.44
567.17	29.42
567.511	29.39
567.851	29.37
568.192	29.36
568.533	29.32
568.874	29.31
569.214	29.29
569.555	29.24
569.895	29.25
570.236	29.24
570.576	29.23
570.917	29.2
571.257	29.15
571.598	29.09
571.938	29.04
572.278	29.03
572.618	29.03
572.959	28.99
573.299	28.97
573.639	28.92
573.979	28.9
574.319	28.86
574.659	28.82
574.999	28.79
575.339	28.76
575.678	28.74
576.018	28.69
576.358	28.66
576.698	28.62
577.037	28.57
577.377	28.51
577.716	28.46
578.056	28.42
578.395	28.39
578.735	28.36
579.074	28.33
579.413	28.28
579.753	28.15
580.092	28.13
580.431	28.11
580.77	28.05
581.109	28.02
581.448	28.03
581.787	28.02
582.126	27.96
582.465	27.91
582.804	27.88
583.143	27.84
583.482	27.79
583.82	27.75
584.159	27.74
584.498	27.74
584.836	27.72
585.175	27.67
585.514	27.63
585.852	27.6
586.19	27.56
586.529	27.53
586.867	27.57
587.205	27.55
587.544	27.5
587.882	27.51
588.22	27.51
588.558	27.47
588.896	27.42
589.234	27.42
589.572	27.37
589.91	27.36
590.248	27.35
590.586	27.35
590.924	27.35
591.262	27.31
591.599	27.3
591.937	27.27
592.275	27.27
592.612	27.23
592.95	27.21
593.287	27.21
593.625	27.18
593.962	27.18
594.299	27.19
594.637	27.19
594.974	27.17
595.311	27.14
595.648	27.13
595.985	27.11
596.322	27.09
596.659	27.1
596.996	27.08
597.333	27.04
597.67	26.99
598.007	26.96
598.344	26.92
598.681	26.9
599.017	26.87
599.354	26.82
599.691	26.81
600.027	26.83
600.364	26.8
600.7	26.77
601.037	26.73
601.373	26.68
601.71	26.7
602.046	26.68
602.382	26.67
602.718	26.65
603.054	26.65
603.391	26.65
603.727	26.63
604.063	26.64
604.399	26.64
604.735	26.66
605.071	26.66
605.406	26.66
605.742	26.63
606.078	26.64
606.414	26.64
606.749	26.64
607.085	26.55
607.421	26.55
607.756	26.54
608.092	26.48
608.427	26.44
608.762	26.37
609.098	26.32
609.433	26.28
609.768	26.2
610.104	26.17
610.439	26.14
610.774	26.11
611.109	26.06
611.444	26.04
611.779	26.03
612.114	25.97
612.449	25.93
612.784	25.95
613.118	25.92
613.453	25.88
613.788	25.8
614.123	25.78
614.457	25.72
614.792	25.69
615.126	25.71
615.461	25.7
615.795	25.68
616.13	25.72
616.464	25.7
616.798	25.68
617.132	25.62
617.467	25.62
617.801	25.59
618.135	25.57
618.469	25.55
618.803	25.45
619.137	25.42
619.471	25.41
619.805	25.32
620.139	25.29
620.472	25.27
620.806	25.3
621.14	25.27
621.473	25.26
621.807	25.25
622.141	25.19
622.474	25.17
622.808	25.16
623.141	25.1
623.474	25.11
623.808	25.16
624.141	25.18
624.474	25.17
624.807	25.18
625.141	25.19
625.474	25.2
625.807	25.27
626.14	25.29
626.473	25.29
626.806	25.3
627.138	25.3
627.471	25.29
627.804	25.28
628.137	25.32
628.469	25.31
628.802	25.27
629.135	25.28
629.467	25.25
629.8	25.23
630.132	25.23
630.465	25.2
630.797	25.2
631.129	25.19
631.461	25.17
631.794	25.21
632.126	25.17
632.458	25.17
632.79	25.14
633.122	25.18
633.454	25.19
633.786	25.23
634.118	25.16
634.45	25.14
634.781	25.09
635.113	25.09
635.445	25.08
635.777	25.08
636.108	25.1
636.44	25.07
636.771	25.06
637.103	25.03
637.434	25
637.765	24.95
638.097	24.96
638.428	24.91
638.759	24.88
639.09	24.9
639.422	24.88
639.753	24.81
640.084	24.72
640.415	24.7
640.746	24.66
641.077	24.71
641.407	24.66
641.738	24.69
642.069	24.64
642.4	24.67
642.73	24.63
643.061	24.59
643.392	24.66
643.722	24.71
644.053	24.7
644.383	24.7
644.713	24.71
645.044	24.65
645.374	24.67
645.704	24.64
646.034	24.61
646.365	24.59
646.695	24.65
647.025	24.69
647.355	24.64
647.685	24.68
648.015	24.7
648.344	24.74
648.674	24.73
649.004	24.77
649.334	24.74
649.663	24.81
649.993	24.86
650.323	24.86
650.652	24.84
650.982	24.84
651.311	24.84
651.64	24.84
651.97	24.79
652.299	24.82
652.628	24.82
652.958	24.81
653.287	24.82
653.616	24.79
653.945	24.79
654.274	24.82
654.603	24.76
654.932	24.7
655.261	24.77
655.589	24.75
655.918	24.78
656.247	24.85
656.576	24.86
656.904	24.92
657.233	24.94
657.561	24.9
657.89	24.92
658.218	24.91
658.547	24.88
658.875	25
659.203	24.98
659.532	24.97
659.86	24.95
660.188	24.92
660.516	24.94
660.844	24.92
661.172	24.91
661.5	24.89
661.828	24.93
662.156	24.84
662.484	24.82
662.811	24.79
663.139	24.72
663.467	24.67
663.794	24.57
664.122	24.48
664.45	24.47
664.777	24.41
665.104	24.43
665.432	24.38
665.759	24.33
666.086	24.32
666.414	24.3
666.741	24.36
667.068	24.37
667.395	24.35
667.722	24.32
668.049	24.32
668.376	24.36
668.703	24.39
669.03	24.45
669.357	24.44
669.683	24.4
670.01	24.41
670.337	24.44
670.663	24.43
670.99	24.35
671.317	24.37
671.643	24.41
671.969	24.41
672.296	24.46
672.622	24.43
672.948	24.4
673.275	24.4
673.601	24.34
673.927	24.33
674.253	24.34
674.579	24.36
674.905	24.36
675.231	24.32
675.557	24.3
675.883	24.27
676.209	24.37
676.534	24.4
676.86	24.43
677.186	24.45
677.511	24.52
677.837	24.64
678.162	24.68
678.488	24.65
678.813	24.71
679.139	24.74
679.464	24.71
679.789	24.73
680.114	24.75
680.44	24.78
680.765	24.82
681.09	24.87
681.415	24.86
681.74	24.83
682.065	24.86
682.39	24.81
682.714	24.81
683.039	24.7
683.364	24.72
683.689	24.7
684.013	24.7
684.338	24.66
684.662	24.67
684.987	24.64
685.311	24.66
685.636	24.61
685.96	24.55
686.284	24.55
686.608	24.48
686.933	24.42
687.257	24.45
687.581	24.39
687.905	24.33
688.229	24.41
688.553	24.41
688.877	24.45
689.201	24.46
689.524	24.5
689.848	24.56
690.172	24.5
690.496	24.51
690.819	24.37
691.143	24.35
691.466	24.26
691.79	24.19
692.113	24.1
692.436	24.08
692.76	24.11
693.083	24.17
693.406	24.26
693.729	24.27
694.053	24.21
694.376	24.19
694.699	24.23
695.022	24.32
695.344	24.46
695.667	24.57
695.99	24.61
696.313	24.69
696.636	24.78
696.958	24.92
697.281	24.94
697.604	25.03
697.926	25.05
698.249	25.1
698.571	25.17
698.893	25.24
699.216	25.15
699.538	25.15
699.86	25.12
700.182	25.07
700.504	25.07
700.827	25.16
701.149	25.24
701.471	25.19
701.793	25.03
702.114	24.9
702.436	24.71
702.758	24.62
703.08	24.46
703.401	24.19
703.723	23.92
704.045	23.76
704.366	23.66
704.688	23.64
705.009	23.59
705.331	23.63
705.652	23.58
705.973	23.69
706.294	23.67
706.616	23.66
706.937	23.65
707.258	23.62
707.579	23.62
707.9	23.64
708.221	23.71
708.542	23.78
708.863	23.88
709.183	23.92
709.504	24.04
709.825	24.08
710.145	24.23
710.466	24.32
710.787	24.37
711.107	24.38
711.427	24.39
711.748	24.38
712.068	24.31
712.388	24.4
712.709	24.49
713.029	24.49
713.349	24.51
713.669	24.59
713.989	24.7
714.309	24.66
714.629	24.6
714.949	24.59
715.269	24.59
715.589	24.5
715.908	24.52
716.228	24.44
716.548	24.41
716.867	24.43
717.187	24.5
717.506	24.54
717.826	24.66
718.145	24.62
718.465	24.65
718.784	24.72
719.103	24.65
719.422	24.53
719.741	24.55
720.061	24.65
720.38	24.65
720.699	24.65
721.018	24.73
721.336	24.78
721.655	24.9
721.974	24.89
722.293	25.06
722.612	25.15
722.93	25.3
723.249	25.47
723.567	25.54
723.886	25.57
724.204	25.61
724.523	25.57
724.841	25.77
725.159	25.97
725.477	26.18
725.796	26.38
726.114	26.71
726.432	26.85
726.75	26.99
727.068	27.21
727.386	27.33
727.704	27.44
728.022	27.58
728.339	27.63
728.657	27.86
728.975	28.02
729.292	28.18
729.61	28.27
729.928	28.33
730.245	28.38
730.562	28.53
730.88	28.71
731.197	28.8
731.514	28.87
731.832	28.86
732.149	28.94
732.466	29.04
732.783	28.98
733.1	29.1
733.417	29.15
733.734	29.16
734.051	29.24
734.368	29.4
734.684	29.47
735.001	29.51
735.318	29.47
735.634	29.48
735.951	29.54
736.268	29.69
736.584	29.89
736.9	30.07
737.217	30.15
737.533	30.15
737.849	30.38
738.166	30.54
738.482	30.8
738.798	30.81
739.114	30.87
739.43	30.95
739.746	31.04
740.062	31.05
740.378	31.11
740.693	31.11
741.009	31.24
741.325	31.41
741.641	31.58
741.956	31.73
742.272	31.87
742.587	31.98
742.903	32.07
743.218	32.04
743.533	31.97
743.849	32.02
744.164	32.17
744.479	32.2
744.794	32.03
745.109	31.94
745.424	31.99
745.739	31.93
746.054	32.11
746.369	32.15
746.684	32.25
746.999	32.2
747.313	32.35
747.628	32.26
747.943	32.24
748.257	32.37
748.572	32.48
748.886	32.58
749.201	32.57
749.515	32.59
749.829	32.8
750.144	32.99
750.458	33.03
750.772	33.1
751.086	33.26
751.4	33.45
751.714	33.63
752.028	33.63
752.342	33.89
752.656	33.92
752.97	34.05
753.284	34.4
753.597	34.68
753.911	34.8
754.225	34.88
754.538	35
754.852	34.89
755.165	35.04
755.478	35.12
755.792	35.31
756.105	35.58
756.418	35.39
756.731	35.5
757.045	35.7
757.358	35.78
757.671	35.75
757.984	35.89
758.297	36.07
758.609	36.19
758.922	36.22
759.235	36.3
759.548	36.3
759.86	36.17
760.173	35.99
760.486	35.8
760.798	35.69
761.111	35.64
761.423	35.72
761.735	35.53
762.048	35.37
762.36	35.37
762.672	35.3
762.984	35.49
763.296	35.53
763.608	35.53
763.92	35.63
764.232	35.74
764.544	35.85
764.856	35.81
765.168	35.93
765.48	36.01
765.791	36.12
766.103	36.31
766.414	36.42
766.726	36.78
767.037	37.07
767.349	37.32
767.66	37.58
767.972	37.83
768.283	38.25
768.594	38.83
768.905	39.07
769.216	39.22
769.527	39.37
769.838	39.69
770.149	40.1
770.46	40.35
770.771	40.48
771.082	40.55
771.393	40.97
771.703	41.19
772.014	41.53
772.324	41.58
772.635	41.87
772.945	42.01
773.256	42.11
773.566	42.38
773.877	42.73
774.187	42.8
774.497	42.78
774.807	42.79
775.117	42.56
775.427	42.41
775.737	42.55
776.047	42.73
776.357	42.84
776.667	42.66
776.977	42.68
777.287	42.86
777.596	42.77
777.906	42.52
778.216	42.63
778.525	42.54
778.835	42.69
779.144	42.49
779.453	42.39
779.763	42.33
780.072	42.53
780.381	42.44
780.69	42.61
781	42.92
781.309	43.23
781.618	43.31
781.927	43.62
782.235	43.73
782.544	43.84
782.853	43.52
783.162	43.61
783.471	43.99
783.779	44.07
784.088	44.34
784.396	44.41
784.705	44.41
785.013	44.07
785.322	43.97
785.63	43.8
785.938	43.54
786.246	43.52
786.554	43.24
786.863	43.27
787.171	43.18
787.479	43
787.787	43.01
788.094	43.16
788.402	43.18
788.71	43.09
789.018	43.2
789.326	43.54
789.633	43.63
789.941	43.75
790.248	43.78
790.556	43.89
790.863	44.1
791.171	44.04
791.478	44.49
791.785	44.79
792.092	45.09
792.399	45.72
792.707	46.15
793.014	46.34
793.321	46.31
793.628	46.41
793.934	46.64
794.241	46.3
794.548	46.26
794.855	46.19
795.161	46.45
795.468	46.21
795.775	46.12
796.081	46.03
796.388	45.55
796.694	45.64
797	45.69
797.307	45.59
797.613	45.48
797.919	45.26
798.225	45.24
798.531	45.4
798.837	45.52
799.143	45.36
799.449	45.46
799.755	45.9
800.061	45.98
800.367	46.14
800.672	46.39
800.978	46.79
801.284	47.12
801.589	47.31
801.895	47.43
802.2	47.72
802.506	47.85
802.811	47.98
803.116	47.62
803.421	47.61
803.727	47.73
804.032	47.92
804.337	48.28
804.642	48.41
804.947	48.49
805.252	48.59
805.556	48.54
805.861	48.76
806.166	48.58
806.471	48.7
806.775	48.58
807.08	48.99
807.384	48.77
807.689	48.71
807.993	48.51
808.298	48.59
808.602	48.35
808.906	48.52
809.211	48.19
809.515	48.56
809.819	48.73
810.123	48.97
810.427	49.47
810.731	49.43
811.035	49.4
811.338	49.68
811.642	49.55
811.946	50.13
812.25	50.4
812.553	50.53
812.857	50.48
813.16	50.73
813.464	50.69
813.767	51
814.07	51.15
814.374	51.25
814.677	51.45
814.98	51.77
815.283	51.92
815.586	52.58
815.889	52.43
816.192	52.41
816.495	51.72
816.798	51.24
817.101	50.73
817.404	50.19
817.706	49.41
818.009	48.52
818.312	47.24
818.614	46.07
818.917	45.05
819.219	43.54
819.521	41.92
819.824	40.57
820.126	39.48
820.428	38.59
820.73	37.95
821.032	37.49
821.334	37.12
821.636	36.84
821.938	36.71
822.24	36.66
822.542	36.51
822.844	36.56
823.145	36.51
823.447	36.5
823.749	36.47
824.05	36.33
824.352	36.27
824.653	36.22
824.955	36.22
825.256	36.23
825.557	36.44
825.858	36.7
826.16	36.95
826.461	37.25
826.762	37.69
827.063	38.08
827.364	38.51
827.665	38.93
827.965	39.34
828.266	39.67
828.567	39.95
828.868	40.21
829.168	40.27
829.469	40.63
829.769	40.73
830.07	40.98
830.37	41.49
830.67	42.06
830.971	42.81
831.271	43.17
831.571	43.29
831.871	43.08
832.171	43.2
832.471	43.34
832.771	43.32
833.071	43.57
833.371	43.88
833.671	43.95
833.971	44.27
834.27	44.32
834.57	44.26
834.869	44.45
835.169	44.85
835.468	45.02
835.768	44.85
836.067	44.98
836.367	45.21
836.666	45.47
836.965	45.77
837.264	45.92
837.563	46.46
837.862	47.78
838.161	48.9
838.46	49.39
838.759	50.31
839.058	51.32
839.356	51.8
839.655	52.4
839.954	52.98
840.252	53.11
840.551	53.49
840.849	54.02
841.148	54.36
841.446	54.29
841.744	54.84
842.043	55.28
842.341	55.39
842.639	55.77
842.937	55.87
843.235	55.84
843.533	56.66
843.831	57.4
844.129	57.69
844.427	58.66
844.724	59.35
845.022	60.28
845.32	61.26
845.617	61.89
845.915	63.37
846.212	64.44
846.51	65.62
846.807	66.14
847.104	65.88
847.402	65.02
847.699	64.73
847.996	64.31
848.293	64.07
848.59	65.12
848.887	65.4
849.184	65.96
849.481	67.57
849.778	67.76
850.074	67.67
850.371	67.83
850.668	67.32
850.964	68.48
851.261	68.3
851.557	68.04
851.854	68.7
852.15	68.07
852.446	68.38
852.743	67.87
853.039	68.12
853.335	68.83
853.631	70.65
853.927	72.15
854.223	72.47
854.519	73.02
854.815	72.78
855.111	72.33
855.406	71.87
855.702	71.49
855.998	70.86
856.293	71.72
856.589	71.06
856.884	71.74
857.18	71.7
857.475	72.19
857.77	71.97
858.066	71.18
858.361	71.62
858.656	70.52
858.951	70.69
859.246	70.77
859.541	70.98
859.836	69.63
860.131	68.53
860.426	68.55
860.72	68.88
861.015	69.04
861.31	69.24
861.604	69.89
861.899	70.22
862.193	70.43
862.487	69.7
862.782	70.26
863.076	69.8
863.37	68.56
863.664	67.63
863.959	67.34
864.253	68.31
864.547	68.77
864.841	69.49
865.135	69.29
865.428	69.44
865.722	69.06
866.016	70.54
866.31	70.53
866.603	70.63
866.897	70.85
867.19	70.46
867.484	70.62
867.777	71.19
868.07	70.36
868.364	70.56
868.657	70.63
868.95	69.57
869.243	69.84
869.536	69.98
869.829	69.75
870.122	70.18
870.415	69.62
870.708	68.25
871	68.22
871.293	67.65
871.586	67.24
871.878	67.25
872.171	65.87
872.463	65.73
872.756	65.71
873.048	64.87
873.341	65.27
873.633	65.1
873.925	63.85
874.217	63.58
874.509	63.4
874.801	62.91
875.093	63.48
875.385	62.55
875.677	63.26
875.969	63.67
