Data from pcis_c_h2_p4_Reflection_4.txt Node
Date: Wed Jul 12 17:41:57 ART 2017
User: rodoncho
Spectrometer: USB2E3644
Trigger mode: 4
Integration Time (sec): 6.000000E-2
Scans to average: 10
Electric dark correction enabled: true
Nonlinearity correction enabled: false
Boxcar width: 10
XAxis mode: Wavelengths
Number of Pixels in Spectrum: 2048
>>>>>Begin Spectral Data<<<<<
178.315	-119.57
178.696	-25
179.076	-91.09
179.457	-53.61
179.838	-115.79
180.218	-304.55
180.599	-550
180.979	-4000
181.36	-2.99
181.74	41.28
182.121	-55
182.501	101.67
182.881	116.24
183.262	99.09
183.642	28.57
184.022	43.18
184.402	72.66
184.783	99.09
185.163	113.36
185.543	108.09
185.923	128.28
186.303	126.9
186.683	119.91
187.063	118.44
187.443	124.37
187.823	124.18
188.203	128.61
188.583	141.23
188.963	141.9
189.343	132.97
189.723	137.94
190.102	139.94
190.482	141.44
190.862	144.49
191.242	144.32
191.621	148.68
192.001	160.31
192.38	161.63
192.76	148.61
193.14	136.29
193.519	130.07
193.898	125.69
194.278	124
194.657	127.13
195.037	126.62
195.416	125.04
195.795	127.42
196.175	124.69
196.554	124.14
196.933	121.58
197.312	120.93
197.692	119.39
198.071	118.75
198.45	118.75
198.829	118.93
199.208	120.06
199.587	119.75
199.966	117.91
200.345	116.33
200.724	118.19
201.103	122.73
201.482	125.06
201.86	127.59
202.239	129.56
202.618	129.31
202.997	127.23
203.375	128.13
203.754	127.31
204.133	128.14
204.511	128.44
204.89	128.9
205.269	128.76
205.647	129.25
206.026	130.49
206.404	130.7
206.782	129.47
207.161	128.17
207.539	127.71
207.918	126.85
208.296	125.31
208.674	125.05
209.052	123.63
209.431	122.7
209.809	122.03
210.187	119.9
210.565	119.22
210.943	121.46
211.321	119.9
211.699	119.24
212.077	118.95
212.455	118.12
212.833	119.64
213.211	120.11
213.589	118.89
213.967	117.14
214.345	116.82
214.722	117.27
215.1	118.44
215.478	119.32
215.855	119.35
216.233	118.91
216.611	117.15
216.988	115.66
217.366	115.91
217.743	116.08
218.121	116.83
218.498	117.53
218.876	116.85
219.253	117.59
219.631	117.32
220.008	117
220.385	116.18
220.762	115.54
221.14	113.25
221.517	112.31
221.894	112.85
222.271	113.92
222.648	116.66
223.025	115.28
223.402	114.47
223.78	113.65
224.157	114.93
224.533	116.96
224.91	118.59
225.287	119.69
225.664	121.13
226.041	121.56
226.418	120.42
226.795	118.96
227.171	119.03
227.548	118.78
227.925	118.72
228.301	118.11
228.678	117.21
229.055	120.01
229.431	121.4
229.808	120.82
230.184	119.04
230.561	116.65
230.937	117.38
231.313	118.71
231.69	120.06
232.066	120.57
232.442	119.7
232.819	120.03
233.195	120
233.571	119.32
233.947	119.63
234.323	120.33
234.699	121.04
235.075	119.8
235.451	120.84
235.827	121.22
236.203	123.66
236.579	126.13
236.955	126.39
237.331	127.94
237.707	131.58
238.083	137.1
238.459	143.69
238.834	151.78
239.21	157.13
239.586	163.07
239.961	165.75
240.337	172.12
240.713	177.7
241.088	183.89
241.464	187.36
241.839	195.17
242.215	206.29
242.59	231.25
242.965	285.94
243.341	393.89
243.716	629.61
244.091	1349.73
244.467	10543.48
244.842	-1838.85
245.217	-966.6
245.592	-790.3
245.967	-737.56
246.343	-740.91
246.718	-826.82
247.093	-846.13
247.468	-845.87
247.843	-738.56
248.218	-611.95
248.593	-494.72
248.967	-412.08
249.342	-366.08
249.717	-364.44
250.092	-369.41
250.467	-403.1
250.841	-519.27
251.216	-943.6
251.591	-4400.93
251.965	1808.78
252.34	956.39
252.714	695.73
253.089	554.16
253.463	525.47
253.838	564.9
254.212	620.23
254.587	741.29
254.961	1031.12
255.335	2931.29
255.71	-1866.93
256.084	-481.62
256.458	-274.22
256.832	-200.3
257.206	-169.49
257.581	-151.52
257.955	-143.47
258.329	-134.79
258.703	-125.07
259.077	-117.27
259.451	-112.11
259.825	-105.83
260.199	-102.22
260.572	-100
260.946	-96.85
261.32	-96.48
261.694	-95.49
262.068	-93.84
262.441	-92.08
262.815	-92.96
263.189	-93.83
263.562	-97.88
263.936	-111.21
264.309	-131.48
264.683	-154.67
265.056	-168.55
265.43	-173.77
265.803	-169.92
266.176	-165.03
266.55	-168.37
266.923	-166
267.296	-160.54
267.67	-154.46
268.043	-145.03
268.416	-132.65
268.789	-120.46
269.162	-107.69
269.535	-99.55
269.908	-94.44
270.281	-91.75
270.654	-90.92
271.027	-92.54
271.4	-92.87
271.773	-93.61
272.146	-92.7
272.519	-88.46
272.891	-85.99
273.264	-85.72
273.637	-84.93
274.01	-86.47
274.382	-84.16
274.755	-82.09
275.127	-81.01
275.5	-80.81
275.872	-81.43
276.245	-81.87
276.617	-84.18
276.99	-87.74
277.362	-90.11
277.734	-91.03
278.107	-89.62
278.479	-86.06
278.851	-82.76
279.223	-79.88
279.596	-76.46
279.968	-73.79
280.34	-74.28
280.712	-72.79
281.084	-69.23
281.456	-63.39
281.828	-57.99
282.2	-54.03
282.572	-51.15
282.944	-49.31
283.315	-48.59
283.687	-47.74
284.059	-47.02
284.431	-46
284.802	-44.93
285.174	-43.65
285.546	-42.47
285.917	-41.93
286.289	-40.83
286.66	-39.74
287.032	-39.46
287.403	-39.26
287.775	-39.26
288.146	-38.44
288.518	-37.89
288.889	-37.56
289.26	-39.26
289.632	-40.61
290.003	-42.27
290.374	-43.8
290.745	-44.23
291.116	-43.42
291.487	-42.56
291.858	-41.75
292.229	-40.9
292.6	-40.07
292.971	-39.43
293.342	-38.16
293.713	-36.56
294.084	-35.6
294.455	-34.45
294.826	-33.54
295.196	-33.75
295.567	-33.59
295.938	-33.42
296.308	-33.52
296.679	-33.04
297.05	-31.89
297.42	-31.18
297.791	-29.76
298.161	-28.49
298.532	-28.01
298.902	-27.95
299.272	-27.61
299.643	-27.52
300.013	-27.53
300.383	-27.35
300.754	-26.77
301.124	-26.64
301.494	-26.56
301.864	-26.35
302.234	-26.64
302.604	-26.78
302.974	-26.3
303.344	-26.12
303.714	-26.35
304.084	-25.96
304.454	-25.87
304.824	-25.67
305.194	-25.31
305.563	-25.1
305.933	-24.45
306.303	-23.16
306.673	-22.32
307.042	-21.83
307.412	-20.91
307.781	-19.76
308.151	-18.66
308.521	-18.31
308.89	-18.02
309.259	-17.82
309.629	-17.87
309.998	-17.79
310.368	-17.55
310.737	-17.01
311.106	-16.68
311.475	-15.82
311.845	-15.29
312.214	-14.92
312.583	-14.78
312.952	-14.13
313.321	-13.73
313.69	-13.83
314.059	-14.46
314.428	-14.6
314.797	-14.63
315.166	-15.24
315.535	-15.7
315.904	-16.14
316.272	-16.42
316.641	-16.77
317.01	-16.89
317.379	-16.68
317.747	-16.43
318.116	-16.12
318.484	-16.07
318.853	-15.73
319.221	-15.66
319.59	-15.9
319.958	-15.72
320.327	-15.17
320.695	-14.91
321.063	-14.81
321.432	-14.42
321.8	-13.57
322.168	-12.64
322.536	-11.76
322.905	-10.9
323.273	-10.57
323.641	-10.37
324.009	-10.36
324.377	-9.93
324.745	-9.56
325.113	-9.38
325.481	-8.8
325.849	-8.36
326.216	-7.83
326.584	-7.31
326.952	-7.16
327.32	-6.66
327.687	-6.27
328.055	-6.02
328.423	-5.93
328.79	-5.59
329.158	-5.46
329.525	-5.21
329.893	-5.09
330.26	-5.09
330.628	-4.95
330.995	-4.41
331.362	-3.89
331.73	-3.17
332.097	-2.74
332.464	-2.42
332.831	-2.26
333.199	-2.13
333.566	-1.97
333.933	-2.02
334.3	-1.92
334.667	-1.67
335.034	-1.34
335.401	-1.17
335.768	-1.14
336.135	-1.03
336.502	-1.04
336.868	-0.72
337.235	-0.51
337.602	-0.43
337.969	-0.29
338.335	-0.05
338.702	0.06
339.069	0.22
339.435	0.35
339.802	0.32
340.168	0.38
340.535	0.63
340.901	0.7
341.267	0.84
341.634	1.22
342	1.44
342.366	1.6
342.733	1.57
343.099	1.75
343.465	1.99
343.831	2.27
344.197	2.49
344.563	2.6
344.929	2.69
345.295	2.92
345.661	3.07
346.027	3.15
346.393	3.23
346.759	3.25
347.125	3.17
347.491	3.22
347.856	3.31
348.222	3.44
348.588	3.48
348.953	3.46
349.319	3.47
349.684	3.46
350.05	3.52
350.415	3.74
350.781	3.91
351.146	4.08
351.512	4.08
351.877	4.15
352.242	4.22
352.608	4.22
352.973	4.18
353.338	4.27
353.703	4.29
354.068	4.39
354.433	4.55
354.798	4.84
355.164	5.05
355.528	5.19
355.893	5.25
356.258	5.39
356.623	5.57
356.988	5.76
357.353	6.01
357.718	6.15
358.082	6.21
358.447	6.21
358.812	6.31
359.176	6.41
359.541	6.55
359.905	6.64
360.27	6.8
360.634	7.03
360.999	7.2
361.363	7.38
361.728	7.43
362.092	7.43
362.456	7.41
362.821	7.44
363.185	7.49
363.549	7.63
363.913	7.74
364.277	7.8
364.641	7.77
365.005	7.76
365.369	7.82
365.733	7.93
366.097	8.03
366.461	8.05
366.825	8.22
367.189	8.31
367.553	8.49
367.916	8.62
368.28	8.71
368.644	8.83
369.007	8.99
369.371	9.13
369.734	9.31
370.098	9.47
370.461	9.58
370.825	9.69
371.188	9.77
371.552	9.88
371.915	10.08
372.278	10.29
372.642	10.47
373.005	10.64
373.368	10.71
373.731	10.87
374.094	10.91
374.457	10.95
374.82	11.01
375.183	11.01
375.546	11.05
375.909	11.08
376.272	11.11
376.635	11.05
376.998	11.12
377.361	11.16
377.723	11.23
378.086	11.37
378.449	11.52
378.811	11.64
379.174	11.71
379.537	11.73
379.899	11.78
380.262	11.86
380.624	11.96
380.987	11.99
381.349	12.01
381.711	12.11
382.074	12.21
382.436	12.33
382.798	12.37
383.16	12.41
383.522	12.5
383.884	12.59
384.247	12.72
384.609	12.76
384.971	12.82
385.333	12.85
385.695	12.88
386.056	12.88
386.418	12.85
386.78	12.86
387.142	12.89
387.504	12.88
387.865	12.83
388.227	12.79
388.589	12.83
388.95	12.88
389.312	12.89
389.673	12.91
390.035	12.88
390.396	12.95
390.758	12.96
391.119	12.93
391.48	12.9
391.842	12.92
392.203	12.94
392.564	12.97
392.925	13
393.286	12.96
393.648	12.98
394.009	13.01
394.37	13.04
394.731	13.06
395.092	13.06
395.452	13.1
395.813	13.17
396.174	13.22
396.535	13.22
396.896	13.25
397.257	13.26
397.617	13.28
397.978	13.31
398.338	13.4
398.699	13.47
399.06	13.49
399.42	13.47
399.781	13.5
400.141	13.47
400.501	13.46
400.862	13.51
401.222	13.52
401.582	13.55
401.943	13.56
402.303	13.57
402.663	13.6
403.023	13.58
403.383	13.55
403.743	13.55
404.103	13.57
404.463	13.61
404.823	13.63
405.183	13.64
405.543	13.65
405.903	13.64
406.262	13.64
406.622	13.67
406.982	13.7
407.342	13.7
407.701	13.75
408.061	13.77
408.42	13.76
408.78	13.77
409.139	13.81
409.499	13.82
409.858	13.81
410.217	13.83
410.577	13.87
410.936	13.91
411.295	13.91
411.655	13.92
412.014	13.88
412.373	13.86
412.732	13.84
413.091	13.81
413.45	13.76
413.809	13.72
414.168	13.65
414.527	13.6
414.886	13.55
415.245	13.48
415.603	13.41
415.962	13.35
416.321	13.29
416.679	13.2
417.038	13.12
417.397	13.02
417.755	12.97
418.114	12.91
418.472	12.84
418.831	12.79
419.189	12.71
419.547	12.66
419.906	12.62
420.264	12.57
420.622	12.52
420.981	12.49
421.339	12.44
421.697	12.43
422.055	12.41
422.413	12.38
422.771	12.37
423.129	12.35
423.487	12.36
423.845	12.37
424.203	12.37
424.56	12.37
424.918	12.42
425.276	12.44
425.634	12.46
425.991	12.48
426.349	12.51
426.707	12.54
427.064	12.55
427.422	12.59
427.779	12.64
428.137	12.67
428.494	12.72
428.851	12.77
429.209	12.79
429.566	12.82
429.923	12.85
430.28	12.84
430.637	12.9
430.995	12.89
431.352	12.87
431.709	12.91
432.066	12.94
432.423	12.97
432.78	13
433.137	13.01
433.493	13.03
433.85	13.07
434.207	13.09
434.564	13.1
434.92	13.11
435.277	13.09
435.634	13.11
435.99	13.12
436.347	13.14
436.703	13.15
437.06	13.16
437.416	13.19
437.773	13.21
438.129	13.22
438.485	13.26
438.841	13.27
439.198	13.26
439.554	13.26
439.91	13.26
440.266	13.22
440.622	13.21
440.978	13.2
441.334	13.15
441.69	13.14
442.046	13.11
442.402	13.06
442.758	13.03
443.113	13
443.469	12.96
443.825	12.93
444.181	12.91
444.536	12.91
444.892	12.88
445.247	12.87
445.603	12.85
445.958	12.81
446.314	12.8
446.669	12.79
447.025	12.77
447.38	12.75
447.735	12.75
448.09	12.73
448.446	12.73
448.801	12.72
449.156	12.71
449.511	12.73
449.866	12.76
450.221	12.8
450.576	12.82
450.931	12.84
451.286	12.86
451.641	12.88
451.995	12.89
452.35	12.89
452.705	12.9
453.06	12.92
453.414	12.96
453.769	13
454.123	13
454.478	13.01
454.832	13.01
455.187	12.99
455.541	13
455.896	12.97
456.25	12.98
456.604	12.98
456.958	12.98
457.313	13
457.667	13.03
458.021	13.06
458.375	13.1
458.729	13.13
459.083	13.17
459.437	13.2
459.791	13.24
460.145	13.29
460.499	13.33
460.852	13.36
461.206	13.4
461.56	13.45
461.914	13.5
462.267	13.58
462.621	13.67
462.974	13.76
463.328	13.87
463.681	14
464.035	14.15
464.388	14.26
464.742	14.35
465.095	14.44
465.448	14.53
465.801	14.6
466.155	14.7
466.508	14.77
466.861	14.84
467.214	14.91
467.567	14.97
467.92	15.02
468.273	15.08
468.626	15.14
468.979	15.18
469.332	15.2
469.684	15.24
470.037	15.28
470.39	15.34
470.743	15.39
471.095	15.43
471.448	15.46
471.8	15.49
472.153	15.53
472.505	15.53
472.858	15.54
473.21	15.57
473.562	15.55
473.915	15.54
474.267	15.52
474.619	15.48
474.971	15.44
475.324	15.4
475.676	15.36
476.028	15.33
476.38	15.3
476.732	15.26
477.084	15.22
477.436	15.17
477.787	15.08
478.139	15.03
478.491	14.95
478.843	14.84
479.195	14.73
479.546	14.58
479.898	14.43
480.249	14.27
480.601	14.13
480.952	14.05
481.304	13.98
481.655	13.93
482.007	13.91
482.358	13.89
482.709	13.86
483.061	13.84
483.412	13.82
483.763	13.8
484.114	13.79
484.465	13.77
484.816	13.76
485.167	13.76
485.518	13.76
485.869	13.77
486.22	13.8
486.571	13.83
486.922	13.86
487.272	13.91
487.623	13.98
487.974	14.07
488.324	14.16
488.675	14.26
489.025	14.33
489.376	14.4
489.726	14.47
490.077	14.57
490.427	14.66
490.778	14.75
491.128	14.87
491.478	15.01
491.828	15.16
492.179	15.32
492.529	15.47
492.879	15.61
493.229	15.75
493.579	15.87
493.929	16
494.279	16.12
494.629	16.27
494.979	16.46
495.328	16.68
495.678	16.91
496.028	17.14
496.378	17.37
496.727	17.57
497.077	17.75
497.426	17.9
497.776	18.03
498.125	18.19
498.475	18.34
498.824	18.45
499.174	18.58
499.523	18.71
499.872	18.87
500.221	19.02
500.571	19.17
500.92	19.32
501.269	19.47
501.618	19.62
501.967	19.77
502.316	19.9
502.665	20.04
503.014	20.17
503.363	20.29
503.711	20.39
504.06	20.5
504.409	20.6
504.758	20.69
505.106	20.79
505.455	20.87
505.803	20.95
506.152	21.03
506.5	21.13
506.849	21.2
507.197	21.28
507.546	21.34
507.894	21.41
508.242	21.5
508.59	21.57
508.939	21.65
509.287	21.71
509.635	21.78
509.983	21.84
510.331	21.9
510.679	21.95
511.027	22.02
511.375	22.08
511.723	22.15
512.07	22.22
512.418	22.3
512.766	22.37
513.114	22.43
513.461	22.5
513.809	22.56
514.156	22.61
514.504	22.64
514.851	22.69
515.199	22.73
515.546	22.75
515.893	22.81
516.241	22.85
516.588	22.89
516.935	22.91
517.282	22.93
517.63	22.98
517.977	23
518.324	23.03
518.671	23.06
519.018	23.09
519.365	23.12
519.711	23.13
520.058	23.16
520.405	23.2
520.752	23.23
521.099	23.24
521.445	23.29
521.792	23.31
522.138	23.34
522.485	23.39
522.832	23.45
523.178	23.48
523.524	23.51
523.871	23.56
524.217	23.59
524.563	23.59
524.91	23.57
525.256	23.58
525.602	23.57
525.948	23.57
526.294	23.55
526.64	23.54
526.986	23.56
527.332	23.56
527.678	23.57
528.024	23.58
528.37	23.61
528.716	23.62
529.061	23.64
529.407	23.67
529.753	23.67
530.098	23.67
530.444	23.68
530.789	23.68
531.135	23.69
531.48	23.71
531.826	23.75
532.171	23.8
532.516	23.84
532.862	23.89
533.207	23.93
533.552	23.97
533.897	24.03
534.242	24.06
534.587	24.08
534.932	24.09
535.277	24.14
535.622	24.16
535.967	24.19
536.312	24.24
536.657	24.28
537.001	24.33
537.346	24.37
537.691	24.4
538.035	24.42
538.38	24.42
538.724	24.42
539.069	24.43
539.413	24.43
539.758	24.44
540.102	24.46
540.446	24.47
540.791	24.52
541.135	24.54
541.479	24.57
541.823	24.6
542.167	24.62
542.512	24.62
542.856	24.62
543.2	24.61
543.543	24.6
543.887	24.59
544.231	24.61
544.575	24.64
544.919	24.67
545.262	24.73
545.606	24.78
545.95	24.84
546.293	24.88
546.637	24.92
546.98	24.96
547.324	24.98
547.667	25.02
548.011	25.03
548.354	25.02
548.697	25.02
549.04	25.01
549.384	25.01
549.727	25.03
550.07	25.04
550.413	25.07
550.756	25.05
551.099	25.11
551.442	25.13
551.785	25.17
552.128	25.18
552.47	25.16
552.813	25.16
553.156	25.14
553.499	25.14
553.841	25.13
554.184	25.11
554.526	25.12
554.869	25.1
555.211	25.08
555.554	25.06
555.896	25.05
556.238	25.06
556.581	25.07
556.923	25.04
557.265	25.03
557.607	25.01
557.949	25.03
558.291	24.99
558.633	24.97
558.975	24.91
559.317	24.92
559.659	24.92
560.001	24.92
560.343	24.91
560.685	24.86
561.026	24.82
561.368	24.79
561.71	24.75
562.051	24.72
562.393	24.71
562.734	24.71
563.076	24.7
563.417	24.66
563.759	24.65
564.1	24.65
564.441	24.63
564.782	24.65
565.124	24.64
565.465	24.62
565.806	24.6
566.147	24.64
566.488	24.62
566.829	24.63
567.17	24.62
567.511	24.61
567.851	24.61
568.192	24.63
568.533	24.64
568.874	24.65
569.214	24.66
569.555	24.66
569.895	24.66
570.236	24.66
570.576	24.65
570.917	24.63
571.257	24.63
571.598	24.63
571.938	24.61
572.278	24.6
572.618	24.59
572.959	24.58
573.299	24.54
573.639	24.52
573.979	24.49
574.319	24.45
574.659	24.44
574.999	24.42
575.339	24.39
575.678	24.39
576.018	24.35
576.358	24.32
576.698	24.3
577.037	24.26
577.377	24.22
577.716	24.22
578.056	24.19
578.395	24.2
578.735	24.13
579.074	24.09
579.413	24.07
579.753	24.05
580.092	24.04
580.431	24.04
580.77	24.03
581.109	24.04
581.448	24.04
581.787	24.03
582.126	24.04
582.465	24.1
582.804	24.07
583.143	24.06
583.482	24.07
583.82	24.07
584.159	24.07
584.498	24.1
584.836	24.1
585.175	24.14
585.514	24.1
585.852	24.14
586.19	24.14
586.529	24.12
586.867	24.14
587.205	24.15
587.544	24.16
587.882	24.15
588.22	24.11
588.558	24.05
588.896	24.04
589.234	24
589.572	23.91
589.91	23.93
590.248	23.92
590.586	23.92
590.924	23.87
591.262	23.89
591.599	23.84
591.937	23.82
592.275	23.75
592.612	23.74
592.95	23.72
593.287	23.72
593.625	23.73
593.962	23.72
594.299	23.73
594.637	23.71
594.974	23.74
595.311	23.75
595.648	23.79
595.985	23.78
596.322	23.76
596.659	23.79
596.996	23.77
597.333	23.77
597.67	23.72
598.007	23.73
598.344	23.71
598.681	23.75
599.017	23.73
599.354	23.72
599.691	23.73
600.027	23.71
600.364	23.73
600.7	23.73
601.037	23.69
601.373	23.66
601.71	23.68
602.046	23.67
602.382	23.7
602.718	23.71
603.054	23.71
603.391	23.71
603.727	23.67
604.063	23.64
604.399	23.61
604.735	23.66
605.071	23.67
605.406	23.67
605.742	23.64
606.078	23.68
606.414	23.7
606.749	23.73
607.085	23.77
607.421	23.76
607.756	23.78
608.092	23.79
608.427	23.75
608.762	23.72
609.098	23.7
609.433	23.61
609.768	23.6
610.104	23.62
610.439	23.63
610.774	23.64
611.109	23.67
611.444	23.67
611.779	23.66
612.114	23.64
612.449	23.62
612.784	23.64
613.118	23.63
613.453	23.61
613.788	23.55
614.123	23.45
614.457	23.39
614.792	23.33
615.126	23.3
615.461	23.3
615.795	23.25
616.13	23.25
616.464	23.27
616.798	23.25
617.132	23.21
617.467	23.18
617.801	23.15
618.135	23.11
618.469	23.15
618.803	23.1
619.137	23.11
619.471	23.08
619.805	23.01
620.139	22.96
620.472	22.97
620.806	22.92
621.14	22.9
621.473	22.89
621.807	22.88
622.141	22.84
622.474	22.81
622.808	22.82
623.141	22.83
623.474	22.89
623.808	22.93
624.141	22.92
624.474	22.94
624.807	22.94
625.141	22.95
625.474	22.92
625.807	22.95
626.14	22.93
626.473	22.95
626.806	22.98
627.138	23.02
627.471	23
627.804	23.04
628.137	23.06
628.469	23.08
628.802	23.08
629.135	23.12
629.467	23.13
629.8	23.11
630.132	23.08
630.465	23.06
630.797	22.99
631.129	23.02
631.461	23.02
631.794	22.99
632.126	22.99
632.458	23.03
632.79	23
633.122	23.04
633.454	23.01
633.786	22.98
634.118	22.93
634.45	22.95
634.781	22.96
635.113	22.95
635.445	22.93
635.777	22.94
636.108	22.94
636.44	22.93
636.771	22.94
637.103	22.93
637.434	22.88
637.765	22.87
638.097	22.78
638.428	22.73
638.759	22.76
639.09	22.72
639.422	22.69
639.753	22.69
640.084	22.63
640.415	22.6
640.746	22.61
641.077	22.62
641.407	22.59
641.738	22.57
642.069	22.56
642.4	22.57
642.73	22.52
643.061	22.48
643.392	22.51
643.722	22.5
644.053	22.46
644.383	22.5
644.713	22.48
645.044	22.51
645.374	22.5
645.704	22.45
646.034	22.48
646.365	22.49
646.695	22.47
647.025	22.48
647.355	22.54
647.685	22.56
648.015	22.64
648.344	22.66
648.674	22.65
649.004	22.67
649.334	22.7
649.663	22.72
649.993	22.85
650.323	22.87
650.652	22.88
650.982	22.85
651.311	22.8
651.64	22.79
651.97	22.82
652.299	22.9
652.628	22.95
652.958	22.91
653.287	22.9
653.616	22.88
653.945	22.88
654.274	22.84
654.603	22.83
654.932	22.77
655.261	22.75
655.589	22.8
655.918	22.79
656.247	22.83
656.576	22.85
656.904	22.79
657.233	22.84
657.561	22.82
657.89	22.84
658.218	22.89
658.547	22.95
658.875	22.95
659.203	22.88
659.532	22.89
659.86	22.89
660.188	22.89
660.516	22.9
660.844	22.84
661.172	22.85
661.5	22.88
661.828	22.85
662.156	22.8
662.484	22.74
662.811	22.75
663.139	22.68
663.467	22.68
663.794	22.67
664.122	22.62
664.45	22.63
664.777	22.7
665.104	22.65
665.432	22.59
665.759	22.57
666.086	22.58
666.414	22.61
666.741	22.6
667.068	22.55
667.395	22.51
667.722	22.55
668.049	22.56
668.376	22.49
668.703	22.47
669.03	22.53
669.357	22.56
669.683	22.52
670.01	22.56
670.337	22.48
670.663	22.51
670.99	22.43
671.317	22.43
671.643	22.47
671.969	22.51
672.296	22.52
672.622	22.55
672.948	22.55
673.275	22.46
673.601	22.44
673.927	22.44
674.253	22.54
674.579	22.56
674.905	22.55
675.231	22.55
675.557	22.66
675.883	22.65
676.209	22.68
676.534	22.77
676.86	22.75
677.186	22.85
677.511	22.88
677.837	22.91
678.162	22.92
678.488	22.88
678.813	22.9
679.139	22.96
679.464	23.05
679.789	23.07
680.114	23.13
680.44	23.16
680.765	23.16
681.09	23.17
681.415	23.18
681.74	23.18
682.065	23.24
682.39	23.17
682.714	23.18
683.039	23.12
683.364	23.05
683.689	23.03
684.013	22.99
684.338	22.91
684.662	22.95
684.987	22.96
685.311	22.91
685.636	22.85
685.96	22.77
686.284	22.66
686.608	22.57
686.933	22.5
687.257	22.48
687.581	22.53
687.905	22.5
688.229	22.54
688.553	22.54
688.877	22.47
689.201	22.44
689.524	22.37
689.848	22.38
690.172	22.38
690.496	22.43
690.819	22.39
691.143	22.38
691.466	22.34
691.79	22.28
692.113	22.21
692.436	22.17
692.76	22.16
693.083	22.14
693.406	22.21
693.729	22.24
694.053	22.33
694.376	22.24
694.699	22.23
695.022	22.31
695.344	22.38
695.667	22.49
695.99	22.65
696.313	22.84
696.636	22.93
696.958	22.97
697.281	22.94
697.604	22.98
697.926	22.98
698.249	23.01
698.571	23.04
698.893	23.07
699.216	23.12
699.538	23.14
699.86	23.08
700.182	23.1
700.504	23.09
700.827	23.04
701.149	23.06
701.471	23
701.793	22.88
702.114	22.8
702.436	22.68
702.758	22.51
703.08	22.31
703.401	22.1
703.723	21.97
704.045	21.95
704.366	21.85
704.688	21.84
705.009	21.73
705.331	21.75
705.652	21.69
705.973	21.64
706.294	21.65
706.616	21.78
706.937	21.83
707.258	21.92
707.579	21.97
707.9	22
708.221	22.15
708.542	22.18
708.863	22.24
709.183	22.34
709.504	22.34
709.825	22.46
710.145	22.47
710.466	22.53
710.787	22.54
711.107	22.51
711.427	22.45
711.748	22.49
712.068	22.4
712.388	22.61
712.709	22.63
713.029	22.69
713.349	22.61
713.669	22.54
713.989	22.52
714.309	22.46
714.629	22.51
714.949	22.37
715.269	22.39
715.589	22.35
715.908	22.28
716.228	22.32
716.548	22.22
716.867	22.3
717.187	22.27
717.506	22.31
717.826	22.38
718.145	22.39
718.465	22.43
718.784	22.55
719.103	22.52
719.422	22.62
719.741	22.54
720.061	22.68
720.38	22.75
720.699	22.93
721.018	23.03
721.336	23.09
721.655	23.27
721.974	23.35
722.293	23.52
722.612	23.64
722.93	23.7
723.249	23.85
723.567	24.01
723.886	24.21
724.204	24.3
724.523	24.39
724.841	24.65
725.159	24.78
725.477	24.9
725.796	24.89
726.114	25.07
726.432	25.29
726.75	25.39
727.068	25.48
727.386	25.53
727.704	25.66
728.022	25.72
728.339	25.97
728.657	26.12
728.975	26.18
729.292	26.28
729.61	26.43
729.928	26.53
730.245	26.57
730.562	26.74
730.88	26.86
731.197	26.95
731.514	27.04
731.832	27.22
732.149	27.29
732.466	27.39
732.783	27.42
733.1	27.56
733.417	27.64
733.734	27.78
734.051	27.71
734.368	27.83
734.684	27.91
735.001	27.87
735.318	27.88
735.634	27.98
735.951	28.03
736.268	28.29
736.584	28.43
736.9	28.54
737.217	28.43
737.533	28.44
737.849	28.58
738.166	28.69
738.482	28.62
738.798	28.73
739.114	28.88
739.43	29.01
739.746	28.94
740.062	29.03
740.378	29.18
740.693	29.51
741.009	29.62
741.325	29.84
741.641	29.96
741.956	30.08
742.272	30.11
742.587	30.27
742.903	30.28
743.218	30.34
743.533	30.39
743.849	30.66
744.164	30.89
744.479	30.96
744.794	31.03
745.109	31.11
745.424	31.15
745.739	31.16
746.054	31.29
746.369	31.51
746.684	31.6
746.999	31.47
747.313	31.37
747.628	31.34
747.943	31.39
748.257	31.45
748.572	31.48
748.886	31.63
749.201	31.53
749.515	31.55
749.829	31.6
750.144	31.69
750.458	31.81
750.772	31.73
751.086	31.76
751.4	31.71
751.714	31.78
752.028	31.87
752.342	31.95
752.656	31.86
752.97	31.8
753.284	31.93
753.597	32.19
753.911	32.32
754.225	32.55
754.538	32.53
754.852	32.63
755.165	32.8
755.478	32.75
755.792	32.82
756.105	32.83
756.418	32.89
756.731	33.01
757.045	32.99
757.358	33.08
757.671	33.2
757.984	33.31
758.297	33.61
758.609	33.63
758.922	33.82
759.235	33.82
759.548	33.84
759.86	33.73
760.173	33.59
760.486	33.48
760.798	33.34
761.111	33.21
761.423	33.17
761.735	33
762.048	33
762.36	33.06
762.672	33.08
762.984	33.12
763.296	33.08
763.608	33.16
763.92	33.24
764.232	33.31
764.544	33.42
764.856	33.35
765.168	33.38
765.48	33.37
765.791	33.57
766.103	33.7
766.414	33.84
766.726	34.02
767.037	34.29
767.349	34.5
767.66	34.86
767.972	35.01
768.283	35.46
768.594	35.88
768.905	36.26
769.216	36.58
769.527	36.99
769.838	37.38
770.149	37.6
770.46	37.96
770.771	38.19
771.082	38.46
771.393	38.77
771.703	39.02
772.014	39.2
772.324	39.22
772.635	39.53
772.945	39.75
773.256	40
773.566	40.31
773.877	40.44
774.187	40.75
774.497	40.87
774.807	40.88
775.117	40.93
775.427	41.09
775.737	41.24
776.047	41.05
776.357	40.92
776.667	40.71
776.977	40.38
777.287	40.36
777.596	40.25
777.906	40.07
778.216	40.17
778.525	40.23
778.835	40.44
779.144	40.36
779.453	40.38
779.763	40.31
780.072	40.2
780.381	40.31
780.69	40.34
781	40.54
781.309	40.6
781.618	40.76
781.927	40.79
782.235	40.73
782.544	40.85
782.853	41.09
783.162	41.44
783.471	41.93
783.779	42.09
784.088	42.37
784.396	42.4
784.705	42.61
785.013	42.47
785.322	42.24
785.63	42.09
785.938	42.06
786.246	41.93
786.554	42.08
786.863	42.08
787.171	41.97
787.479	42.05
787.787	42.13
788.094	42
788.402	42
788.71	42.02
789.018	42.19
789.326	42.3
789.633	42.55
789.941	42.59
790.248	42.86
790.556	42.87
790.863	43.03
791.171	42.99
791.478	43.39
791.785	43.67
792.092	44.01
792.399	44.15
792.707	44.41
793.014	44.51
793.321	44.42
793.628	44.35
793.934	44.19
794.241	44.05
794.548	44.28
794.855	44.08
795.161	44.09
795.468	43.82
795.775	43.65
796.081	43.55
796.388	43.53
796.694	43.19
797	43.26
797.307	43.42
797.613	43.32
797.919	42.98
798.225	42.99
798.531	43.18
798.837	43.17
799.143	43.38
799.449	43.32
799.755	43.46
800.061	43.64
800.367	43.8
800.672	43.9
800.978	44.08
801.284	44.45
801.589	44.63
801.895	44.75
802.2	45.09
802.506	45.05
802.811	44.98
803.116	45
803.421	44.62
803.727	44.62
804.032	44.88
804.337	45.17
804.642	45.16
804.947	45.04
805.252	45.34
805.556	45.31
805.861	45.57
806.166	45.5
806.471	45.7
806.775	45.87
807.08	45.99
807.384	45.99
807.689	46.02
807.993	45.9
808.298	46.06
808.602	46.22
808.906	46.23
809.211	46.35
809.515	46.58
809.819	46.84
810.123	46.89
810.427	47.29
810.731	47.37
811.035	47.56
811.338	47.68
811.642	47.63
811.946	47.81
812.25	47.76
812.553	48.1
812.857	47.85
813.16	48.12
813.464	48.5
813.767	48.47
814.07	48.4
814.374	48.8
814.677	49.14
814.98	49.06
815.283	49.17
815.586	49.57
815.889	49.45
816.192	49.44
816.495	49.12
816.798	48.23
817.101	47.96
817.404	47.57
817.706	47.25
818.009	46.53
818.312	45.47
818.614	44.35
818.917	42.82
819.219	41.48
819.521	39.65
819.824	38.25
820.126	36.86
820.428	36.11
820.73	35.49
821.032	34.93
821.334	34.62
821.636	34.38
821.938	34.15
822.24	34.03
822.542	33.98
822.844	34.02
823.145	33.96
823.447	33.85
823.749	33.76
824.05	33.63
824.352	33.54
824.653	33.62
824.955	33.53
825.256	33.62
825.557	33.73
825.858	33.9
826.16	34.12
826.461	34.59
826.762	35.02
827.063	35.31
827.364	35.72
827.665	36.04
827.965	36.44
828.266	36.75
828.567	37.23
828.868	37.44
829.168	37.46
829.469	37.91
829.769	38.19
830.07	38.46
830.37	38.79
830.67	39.28
830.971	39.62
831.271	40.38
831.571	40.49
831.871	40.47
832.171	40.85
832.471	40.83
832.771	40.87
833.071	40.71
833.371	40.89
833.671	41.17
833.971	41.46
834.27	41.33
834.57	41.12
834.869	40.96
835.169	41.02
835.468	41.06
835.768	41.03
836.067	41.22
836.367	41.38
836.666	41.69
836.965	42.15
837.264	42.59
837.563	42.9
837.862	43.68
838.161	44.94
838.46	45.45
838.759	46.2
839.058	46.87
839.356	47.62
839.655	48.42
839.954	48.8
840.252	49.14
840.551	49.99
840.849	50.71
841.148	50.97
841.446	50.98
841.744	51.99
842.043	52.09
842.341	52.27
842.639	52.87
842.937	52.97
843.235	52.76
843.533	53.13
843.831	53.98
844.129	54.89
844.427	54.87
844.724	55.8
845.022	56.13
845.32	57.27
845.617	57.91
845.915	58.85
846.212	59.5
846.51	59.39
846.807	59.47
847.104	59.95
847.402	60.33
847.699	61.14
847.996	60.77
848.293	61.12
848.59	62.05
848.887	62.04
849.184	63.12
849.481	63.87
849.778	63.57
850.074	63.25
850.371	63.35
850.668	62.94
850.964	62.59
851.261	64.2
851.557	64.13
851.854	64.41
852.15	64.14
852.446	64.62
852.743	65.12
853.039	64.84
853.335	64.75
853.631	65.25
853.927	65.59
854.223	66.25
854.519	66.99
854.815	66.53
855.111	66.23
855.406	66.58
855.702	66.56
855.998	66.5
856.293	66.94
856.589	67.85
856.884	68.34
857.18	68.04
857.475	67.71
857.77	67.64
858.066	67.77
858.361	67.45
858.656	66.91
858.951	66.91
859.246	67.46
859.541	66.97
859.836	66.85
860.131	66.44
860.426	66.33
860.72	66.49
861.015	66.79
861.31	66.74
861.604	66.28
861.899	66.79
862.193	67.88
862.487	67.13
862.782	66.56
863.076	66.5
863.37	67.33
863.664	67.11
863.959	67.44
864.253	67.25
864.547	68.58
864.841	68.68
865.135	68.2
865.428	68.05
865.722	68.53
866.016	68.44
866.31	69.46
866.603	69.38
866.897	69.81
867.19	69.28
867.484	69.46
867.777	69.47
868.07	68.54
868.364	68.4
868.657	68.77
868.95	68.05
869.243	68.44
869.536	68.64
869.829	68.63
870.122	67.81
870.415	67.44
870.708	65.35
871	64.4
871.293	65.39
871.586	64.67
871.878	65.19
872.171	65
872.463	64.81
872.756	64.73
873.048	64.55
873.341	64.53
873.633	64.68
873.925	64.04
874.217	64.35
874.509	63.48
874.801	63.79
875.093	64.29
875.385	64.16
875.677	63.45
875.969	63.06
