Data from pcis_p_h3_p4_Reflection_1.txt Node
Date: Wed Jul 12 17:53:59 ART 2017
User: rodoncho
Spectrometer: USB2E3644
Trigger mode: 4
Integration Time (sec): 6.000000E-2
Scans to average: 10
Electric dark correction enabled: true
Nonlinearity correction enabled: false
Boxcar width: 10
XAxis mode: Wavelengths
Number of Pixels in Spectrum: 2048
>>>>>Begin Spectral Data<<<<<
178.315	53.71
178.696	49.41
179.076	62.48
179.457	67.64
179.838	94.49
180.218	23.86
180.599	-1371.43
180.979	-328.57
181.36	-61.31
181.74	-130.43
182.121	442.11
182.501	91.56
182.881	82.13
183.262	74.64
183.642	0
184.022	72.93
184.402	81.13
184.783	98.69
185.163	100.7
185.543	98.5
185.923	90.44
186.303	87.36
186.683	86.97
187.063	89.46
187.443	91.58
187.823	96.16
188.203	92.36
188.583	94.48
188.963	97.43
189.343	91.63
189.723	91.58
190.102	94.59
190.482	94.81
190.862	94.66
191.242	95.44
191.621	94.66
192.001	93.13
192.38	94.07
192.76	90.29
193.14	90.06
193.519	91.28
193.898	95.42
194.278	97.73
194.657	98.13
195.037	97.77
195.416	97.57
195.795	97.25
196.175	99.07
196.554	98.98
196.933	99.37
197.312	103.57
197.692	103.88
198.071	105.01
198.45	106.65
198.829	108.48
199.208	109.57
199.587	110.71
199.966	111.43
200.345	112.81
200.724	113.45
201.103	113.9
201.482	114.02
201.86	112.6
202.239	113.22
202.618	112.44
202.997	112.54
203.375	112.43
203.754	111.6
204.133	110.21
204.511	108.86
204.89	110.37
205.269	109.85
205.647	108.38
206.026	108.23
206.404	107.18
206.782	105.76
207.161	104.18
207.539	103.53
207.918	102.81
208.296	101.32
208.674	102.57
209.052	104.05
209.431	104.05
209.809	103.2
210.187	102.68
210.565	103.88
210.943	105.66
211.321	106.67
211.699	107.35
212.077	106.45
212.455	105.81
212.833	103.59
213.211	102.18
213.589	104.33
213.967	104.79
214.345	106.22
214.722	105.14
215.1	105.39
215.478	105.39
215.855	106.66
216.233	106.83
216.611	106.12
216.988	104.41
217.366	104.59
217.743	105.6
218.121	105.11
218.498	104.21
218.876	102.55
219.253	102.21
219.631	102.32
220.008	104.42
220.385	106.59
220.762	107.72
221.14	108.58
221.517	107.07
221.894	106.8
222.271	105.8
222.648	106.34
223.025	105.96
223.402	105.86
223.78	105.56
224.157	105.77
224.533	106.14
224.91	107.17
225.287	105.97
225.664	105.5
226.041	105.62
226.418	105.6
226.795	106.85
227.171	107.42
227.548	108.34
227.925	108.21
228.301	109.32
228.678	108.72
229.055	108
229.431	108.3
229.808	107.48
230.184	108.25
230.561	109.62
230.937	110.31
231.313	111.63
231.69	111.07
232.066	110.95
232.442	111.64
232.819	112.12
233.195	114
233.571	114.2
233.947	114.09
234.323	114.43
234.699	112.83
235.075	111.96
235.451	111.5
235.827	112.09
236.203	110.16
236.579	110.35
236.955	110.38
237.331	110.76
237.707	113.6
238.083	115.67
238.459	119.02
238.834	125.32
239.21	130.72
239.586	136.15
239.961	141.36
240.337	143.18
240.713	145.4
241.088	146.26
241.464	149.66
241.839	156.81
242.215	165.88
242.59	182.74
242.965	210.16
243.341	263.87
243.716	355.11
244.091	529.22
244.467	821.64
244.842	1814.74
245.217	-18079.25
245.592	-4512.56
245.967	-3315.36
246.343	-4973.6
246.718	-11804.82
247.093	-20489.36
247.468	-20451.06
247.843	-4054.39
248.218	-1668.85
248.593	-960.84
248.967	-664.21
249.342	-576.6
249.717	-598.15
250.092	-637.72
250.467	-738.07
250.841	-1102.65
251.216	-9016.82
251.591	1426.22
251.965	718.05
252.34	552.41
252.714	476.74
253.089	396.96
253.463	386.47
253.838	389.89
254.212	411.55
254.587	448.3
254.961	529.24
255.335	788.06
255.71	2157.11
256.084	-1189.77
256.458	-438.85
256.832	-290
257.206	-227.6
257.581	-198.52
257.955	-184.09
258.329	-174.84
258.703	-164.83
259.077	-157.46
259.451	-148.78
259.825	-142.18
260.199	-135.67
260.572	-132.67
260.946	-125.61
261.32	-120.74
261.694	-115.89
262.068	-111.8
262.441	-109.32
262.815	-105.7
263.189	-106.15
263.562	-111.7
263.936	-127.04
264.309	-149.72
264.683	-176.22
265.056	-196.22
265.43	-204.1
265.803	-198.33
266.176	-189.25
266.55	-186.05
266.923	-179.48
267.296	-170.13
267.67	-159.12
268.043	-147.85
268.416	-135.44
268.789	-123.22
269.162	-112.11
269.535	-105.52
269.908	-101.3
270.281	-99.15
270.654	-100.61
271.027	-102.86
271.4	-104.85
271.773	-105.17
272.146	-104.11
272.519	-99.07
272.891	-96.92
273.264	-96.16
273.637	-97.21
274.01	-98.32
274.382	-97.85
274.755	-96.44
275.127	-96.95
275.5	-97.73
275.872	-96.78
276.245	-96.37
276.617	-99.14
276.99	-104.32
277.362	-108.45
277.734	-109.87
278.107	-107.12
278.479	-102.58
278.851	-98.13
279.223	-93.41
279.596	-90.65
279.968	-90.23
280.34	-91.29
280.712	-89.06
281.084	-84.09
281.456	-77.02
281.828	-70.69
282.2	-65.35
282.572	-60.37
282.944	-56.72
283.315	-54.88
283.687	-54.1
284.059	-54.35
284.431	-53.52
284.802	-52.23
285.174	-50.72
285.546	-48.93
285.917	-48.66
286.289	-47.78
286.66	-47.05
287.032	-47.5
287.403	-46.98
287.775	-46.36
288.146	-46.04
288.518	-45.79
288.889	-45.78
289.26	-46.95
289.632	-47.96
290.003	-49.52
290.374	-51.89
290.745	-52.75
291.116	-52.9
291.487	-51.8
291.858	-50.47
292.229	-49.62
292.6	-47.64
292.971	-45.81
293.342	-44.05
293.713	-41.57
294.084	-40
294.455	-38.96
294.826	-37.47
295.196	-37.29
295.567	-37.11
295.938	-36.74
296.308	-36.58
296.679	-35.96
297.05	-35.24
297.42	-34.71
297.791	-33.5
298.161	-32.31
298.532	-31.95
298.902	-31.37
299.272	-30.93
299.643	-30.18
300.013	-29.58
300.383	-29.29
300.754	-29.13
301.124	-29.56
301.494	-29.92
301.864	-29.84
302.234	-29.97
302.604	-29.97
302.974	-29.54
303.344	-29.22
303.714	-28.91
304.084	-28.31
304.454	-27.94
304.824	-26.82
305.194	-25.91
305.563	-25.32
305.933	-24.26
306.303	-23.02
306.673	-22.62
307.042	-22.31
307.412	-21.61
307.781	-20.57
308.151	-19.66
308.521	-18.84
308.89	-17.78
309.259	-17.1
309.629	-16.77
309.998	-16.15
310.368	-16.05
310.737	-15.95
311.106	-15.28
311.475	-14.55
311.845	-14.06
312.214	-13.58
312.583	-13.46
312.952	-13.4
313.321	-13.38
313.69	-13.48
314.059	-13.67
314.428	-13.43
314.797	-13.58
315.166	-14.2
315.535	-14.78
315.904	-15.37
316.272	-15.86
316.641	-16.56
317.01	-16.82
317.379	-16.83
317.747	-16.55
318.116	-16.16
318.484	-15.72
318.853	-15.61
319.221	-15.85
319.59	-15.61
319.958	-15.1
320.327	-14.62
320.695	-13.92
321.063	-13.52
321.432	-12.87
321.8	-12.47
322.168	-11.54
322.536	-10.59
322.905	-9.65
323.273	-9.24
323.641	-8.83
324.009	-8.68
324.377	-8.19
324.745	-7.88
325.113	-7.56
325.481	-7.36
325.849	-6.86
326.216	-6.35
326.584	-5.93
326.952	-5.25
327.32	-4.66
327.687	-4.25
328.055	-3.86
328.423	-3.81
328.79	-3.46
329.158	-3.4
329.525	-2.9
329.893	-2.8
330.26	-2.84
330.628	-2.7
330.995	-2.14
331.362	-1.77
331.73	-1.19
332.097	-0.67
332.464	-0.28
332.831	0.03
333.199	0.42
333.566	0.72
333.933	0.87
334.3	1.02
334.667	1.1
335.034	1.17
335.401	1.24
335.768	1.24
336.135	1.64
336.502	1.94
336.868	2.29
337.235	2.51
337.602	2.83
337.969	3.24
338.335	3.55
338.702	3.88
339.069	4.2
339.435	4.5
339.802	4.54
340.168	4.8
340.535	5.09
340.901	5.14
341.267	5.26
341.634	5.47
342	5.79
342.366	6.12
342.733	6.36
343.099	6.55
343.465	6.81
343.831	6.93
344.197	6.96
344.563	6.94
344.929	7.08
345.295	7.26
345.661	7.47
346.027	7.67
346.393	7.58
346.759	7.61
347.125	7.55
347.491	7.75
347.856	7.79
348.222	7.84
348.588	7.91
348.953	7.93
349.319	8.1
349.684	8.11
350.05	8.18
350.415	8.29
350.781	8.44
351.146	8.47
351.512	8.57
351.877	8.85
352.242	8.97
352.608	8.97
352.973	9.04
353.338	9.05
353.703	9.09
354.068	9.26
354.433	9.48
354.798	9.82
355.164	9.88
355.528	9.98
355.893	10.04
356.258	10.29
356.623	10.47
356.988	10.59
357.353	10.81
357.718	11.02
358.082	11.13
358.447	11.14
358.812	11.29
359.176	11.36
359.541	11.32
359.905	11.52
360.27	11.71
360.634	11.74
360.999	11.8
361.363	11.93
361.728	11.99
362.092	12.04
362.456	11.98
362.821	12.06
363.185	12.19
363.549	12.31
363.913	12.39
364.277	12.41
364.641	12.47
365.005	12.51
365.369	12.5
365.733	12.54
366.097	12.69
366.461	12.75
366.825	12.85
367.189	13.04
367.553	13.18
367.916	13.27
368.28	13.47
368.644	13.73
369.007	13.83
369.371	13.98
369.734	14.07
370.098	14.25
370.461	14.38
370.825	14.45
371.188	14.61
371.552	14.73
371.915	14.86
372.278	15.01
372.642	15.15
373.005	15.22
373.368	15.32
373.731	15.37
374.094	15.42
374.457	15.51
374.82	15.55
375.183	15.55
375.546	15.67
375.909	15.66
376.272	15.64
376.635	15.66
376.998	15.68
377.361	15.75
377.723	15.82
378.086	15.92
378.449	16.02
378.811	16.08
379.174	16.09
379.537	16.18
379.899	16.3
380.262	16.26
380.624	16.31
380.987	16.38
381.349	16.45
381.711	16.6
382.074	16.68
382.436	16.81
382.798	16.82
383.16	16.86
383.522	16.97
383.884	17
384.247	17.17
384.609	17.25
384.971	17.29
385.333	17.29
385.695	17.3
386.056	17.36
386.418	17.34
386.78	17.41
387.142	17.38
387.504	17.34
387.865	17.4
388.227	17.45
388.589	17.48
388.95	17.49
389.312	17.46
389.673	17.48
390.035	17.47
390.396	17.48
390.758	17.46
391.119	17.41
391.48	17.44
391.842	17.39
392.203	17.39
392.564	17.38
392.925	17.38
393.286	17.36
393.648	17.35
394.009	17.35
394.37	17.31
394.731	17.26
395.092	17.26
395.452	17.3
395.813	17.3
396.174	17.29
396.535	17.3
396.896	17.26
397.257	17.22
397.617	17.2
397.978	17.25
398.338	17.27
398.699	17.32
399.06	17.32
399.42	17.28
399.781	17.27
400.141	17.25
400.501	17.25
400.862	17.27
401.222	17.26
401.582	17.29
401.943	17.31
402.303	17.34
402.663	17.32
403.023	17.27
403.383	17.27
403.743	17.28
404.103	17.33
404.463	17.39
404.823	17.42
405.183	17.44
405.543	17.43
405.903	17.45
406.262	17.46
406.622	17.49
406.982	17.55
407.342	17.61
407.701	17.64
408.061	17.65
408.42	17.65
408.78	17.68
409.139	17.65
409.499	17.64
409.858	17.71
410.217	17.78
410.577	17.83
410.936	17.83
411.295	17.83
411.655	17.77
412.014	17.71
412.373	17.68
412.732	17.62
413.091	17.58
413.45	17.49
413.809	17.45
414.168	17.35
414.527	17.25
414.886	17.14
415.245	17.07
415.603	16.98
415.962	16.88
416.321	16.77
416.679	16.69
417.038	16.6
417.397	16.47
417.755	16.31
418.114	16.21
418.472	16.13
418.831	16.06
419.189	15.99
419.547	15.93
419.906	15.87
420.264	15.8
420.622	15.71
420.981	15.66
421.339	15.61
421.697	15.55
422.055	15.51
422.413	15.48
422.771	15.45
423.129	15.44
423.487	15.44
423.845	15.42
424.203	15.42
424.56	15.41
424.918	15.42
425.276	15.48
425.634	15.5
425.991	15.51
426.349	15.53
426.707	15.57
427.064	15.58
427.422	15.62
427.779	15.69
428.137	15.77
428.494	15.84
428.851	15.87
429.209	15.93
429.566	15.96
429.923	15.98
430.28	15.99
430.637	16.02
430.995	16.02
431.352	16.04
431.709	16.06
432.066	16.1
432.423	16.12
432.78	16.13
433.137	16.15
433.493	16.2
433.85	16.23
434.207	16.23
434.564	16.26
434.92	16.27
435.277	16.28
435.634	16.28
435.99	16.28
436.347	16.29
436.703	16.29
437.06	16.31
437.416	16.32
437.773	16.33
438.129	16.33
438.485	16.38
438.841	16.38
439.198	16.4
439.554	16.38
439.91	16.4
440.266	16.39
440.622	16.38
440.978	16.34
441.334	16.29
441.69	16.25
442.046	16.18
442.402	16.12
442.758	16.05
443.113	16
443.469	15.94
443.825	15.9
444.181	15.87
444.536	15.83
444.892	15.79
445.247	15.75
445.603	15.71
445.958	15.66
446.314	15.62
446.669	15.57
447.025	15.54
447.38	15.48
447.735	15.43
448.09	15.38
448.446	15.34
448.801	15.31
449.156	15.28
449.511	15.27
449.866	15.26
450.221	15.26
450.576	15.24
450.931	15.24
451.286	15.24
451.641	15.25
451.995	15.23
452.35	15.24
452.705	15.26
453.06	15.26
453.414	15.28
453.769	15.29
454.123	15.29
454.478	15.31
454.832	15.32
455.187	15.31
455.541	15.3
455.896	15.32
456.25	15.32
456.604	15.34
456.958	15.37
457.313	15.4
457.667	15.43
458.021	15.47
458.375	15.52
458.729	15.56
459.083	15.59
459.437	15.66
459.791	15.7
460.145	15.78
460.499	15.86
460.852	15.93
461.206	16
461.56	16.06
461.914	16.13
462.267	16.24
462.621	16.35
462.974	16.51
463.328	16.65
463.681	16.82
464.035	16.98
464.388	17.14
464.742	17.28
465.095	17.43
465.448	17.59
465.801	17.72
466.155	17.82
466.508	17.92
466.861	18.03
467.214	18.13
467.567	18.2
467.92	18.26
468.273	18.34
468.626	18.41
468.979	18.49
469.332	18.57
469.684	18.63
470.037	18.72
470.39	18.75
470.743	18.8
471.095	18.85
471.448	18.9
471.8	18.94
472.153	18.97
472.505	18.98
472.858	18.96
473.21	18.92
473.562	18.88
473.915	18.87
474.267	18.79
474.619	18.73
474.971	18.65
475.324	18.59
475.676	18.5
476.028	18.45
476.38	18.36
476.732	18.25
477.084	18.16
477.436	18.03
477.787	17.92
478.139	17.81
478.491	17.7
478.843	17.57
479.195	17.4
479.546	17.21
479.898	16.96
480.249	16.77
480.601	16.61
480.952	16.49
481.304	16.4
481.655	16.34
482.007	16.28
482.358	16.23
482.709	16.18
483.061	16.15
483.412	16.12
483.763	16.09
484.114	16.08
484.465	16.07
484.816	16.08
485.167	16.07
485.518	16.06
485.869	16.06
486.22	16.07
486.571	16.1
486.922	16.14
487.272	16.21
487.623	16.29
487.974	16.4
488.324	16.51
488.675	16.62
489.025	16.73
489.376	16.83
489.726	16.94
490.077	17.04
490.427	17.14
490.778	17.26
491.128	17.4
491.478	17.58
491.828	17.75
492.179	17.92
492.529	18.14
492.879	18.37
493.229	18.58
493.579	18.79
493.929	19
494.279	19.19
494.629	19.41
494.979	19.65
495.328	19.95
495.678	20.31
496.028	20.64
496.378	20.96
496.727	21.28
497.077	21.56
497.426	21.85
497.776	22.13
498.125	22.39
498.475	22.64
498.824	22.88
499.174	23.13
499.523	23.38
499.872	23.61
500.221	23.86
500.571	24.14
500.92	24.39
501.269	24.64
501.618	24.9
501.967	25.15
502.316	25.42
502.665	25.68
503.014	25.92
503.363	26.13
503.711	26.36
504.06	26.56
504.409	26.77
504.758	26.93
505.106	27.12
505.455	27.31
505.803	27.46
506.152	27.57
506.5	27.7
506.849	27.82
507.197	27.94
507.546	28.07
507.894	28.19
508.242	28.34
508.59	28.43
508.939	28.53
509.287	28.62
509.635	28.73
509.983	28.8
510.331	28.86
510.679	28.96
511.027	29.02
511.375	29.09
511.723	29.17
512.07	29.26
512.418	29.31
512.766	29.37
513.114	29.45
513.461	29.55
513.809	29.65
514.156	29.72
514.504	29.79
514.851	29.83
515.199	29.88
515.546	29.92
515.893	29.98
516.241	30
516.588	30.06
516.935	30.06
517.282	30.11
517.63	30.14
517.977	30.16
518.324	30.19
518.671	30.22
519.018	30.24
519.365	30.27
519.711	30.31
520.058	30.33
520.405	30.38
520.752	30.37
521.099	30.38
521.445	30.4
521.792	30.4
522.138	30.45
522.485	30.49
522.832	30.51
523.178	30.58
523.524	30.62
523.871	30.63
524.217	30.69
524.563	30.7
524.91	30.72
525.256	30.77
525.602	30.81
525.948	30.79
526.294	30.74
526.64	30.71
526.986	30.69
527.332	30.69
527.678	30.66
528.024	30.66
528.37	30.65
528.716	30.65
529.061	30.66
529.407	30.65
529.753	30.66
530.098	30.65
530.444	30.64
530.789	30.64
531.135	30.63
531.48	30.63
531.826	30.63
532.171	30.62
532.516	30.59
532.862	30.57
533.207	30.61
533.552	30.64
533.897	30.67
534.242	30.7
534.587	30.7
534.932	30.73
535.277	30.74
535.622	30.77
535.967	30.78
536.312	30.79
536.657	30.84
537.001	30.85
537.346	30.85
537.691	30.87
538.035	30.89
538.38	30.91
538.724	30.9
539.069	30.87
539.413	30.87
539.758	30.86
540.102	30.86
540.446	30.82
540.791	30.83
541.135	30.83
541.479	30.83
541.823	30.84
542.167	30.84
542.512	30.83
542.856	30.81
543.2	30.79
543.543	30.78
543.887	30.77
544.231	30.77
544.575	30.8
544.919	30.78
545.262	30.77
545.606	30.76
545.95	30.78
546.293	30.81
546.637	30.83
546.98	30.84
547.324	30.83
547.667	30.87
548.011	30.89
548.354	30.91
548.697	30.9
549.04	30.92
549.384	30.9
549.727	30.93
550.07	30.95
550.413	30.98
550.756	30.96
551.099	30.94
551.442	30.95
551.785	30.94
552.128	30.92
552.47	30.91
552.813	30.93
553.156	30.91
553.499	30.91
553.841	30.89
554.184	30.87
554.526	30.86
554.869	30.82
555.211	30.83
555.554	30.82
555.896	30.83
556.238	30.79
556.581	30.79
556.923	30.77
557.265	30.73
557.607	30.68
557.949	30.71
558.291	30.71
558.633	30.66
558.975	30.61
559.317	30.59
559.659	30.59
560.001	30.54
560.343	30.48
560.685	30.44
561.026	30.38
561.368	30.35
561.71	30.33
562.051	30.31
562.393	30.27
562.734	30.22
563.076	30.17
563.417	30.15
563.759	30.11
564.1	30.07
564.441	30.07
564.782	30.07
565.124	30.03
565.465	30
565.806	29.97
566.147	30.01
566.488	30.01
566.829	29.97
567.17	29.94
567.511	29.94
567.851	29.91
568.192	29.9
568.533	29.88
568.874	29.84
569.214	29.84
569.555	29.8
569.895	29.77
570.236	29.74
570.576	29.68
570.917	29.66
571.257	29.64
571.598	29.58
571.938	29.52
572.278	29.48
572.618	29.47
572.959	29.44
573.299	29.33
573.639	29.25
573.979	29.23
574.319	29.21
574.659	29.18
574.999	29.18
575.339	29.17
575.678	29.15
576.018	29.13
576.358	29.09
576.698	29.07
577.037	29.04
577.377	28.99
577.716	29
578.056	28.97
578.395	28.96
578.735	28.96
579.074	28.95
579.413	28.9
579.753	28.87
580.092	28.86
580.431	28.9
580.77	28.91
581.109	28.92
581.448	28.86
581.787	28.84
582.126	28.82
582.465	28.74
582.804	28.7
583.143	28.68
583.482	28.65
583.82	28.61
584.159	28.57
584.498	28.57
584.836	28.55
585.175	28.5
585.514	28.48
585.852	28.46
586.19	28.45
586.529	28.5
586.867	28.46
587.205	28.45
587.544	28.44
587.882	28.42
588.22	28.37
588.558	28.35
588.896	28.35
589.234	28.34
589.572	28.35
589.91	28.34
590.248	28.34
590.586	28.32
590.924	28.3
591.262	28.32
591.599	28.28
591.937	28.25
592.275	28.25
592.612	28.21
592.95	28.18
593.287	28.18
593.625	28.13
593.962	28.16
594.299	28.15
594.637	28.1
594.974	28.09
595.311	28.09
595.648	28.1
595.985	28.1
596.322	28.06
596.659	28.06
596.996	28.02
597.333	27.98
597.67	27.97
598.007	27.94
598.344	27.91
598.681	27.91
599.017	27.9
599.354	27.87
599.691	27.87
600.027	27.86
600.364	27.83
600.7	27.84
601.037	27.81
601.373	27.83
601.71	27.86
602.046	27.86
602.382	27.85
602.718	27.82
603.054	27.79
603.391	27.76
603.727	27.76
604.063	27.75
604.399	27.71
604.735	27.69
605.071	27.74
605.406	27.75
605.742	27.74
606.078	27.72
606.414	27.74
606.749	27.73
607.085	27.72
607.421	27.75
607.756	27.75
608.092	27.71
608.427	27.66
608.762	27.6
609.098	27.55
609.433	27.54
609.768	27.51
610.104	27.48
610.439	27.49
610.774	27.49
611.109	27.49
611.444	27.52
611.779	27.49
612.114	27.42
612.449	27.38
612.784	27.36
613.118	27.36
613.453	27.33
613.788	27.27
614.123	27.2
614.457	27.14
614.792	27.08
615.126	27.03
615.461	26.96
615.795	26.93
616.13	26.97
616.464	26.96
616.798	26.95
617.132	26.97
617.467	26.95
617.801	26.89
618.135	26.89
618.469	26.87
618.803	26.82
619.137	26.81
619.471	26.8
619.805	26.79
620.139	26.74
620.472	26.7
620.806	26.69
621.14	26.71
621.473	26.67
621.807	26.64
622.141	26.66
622.474	26.71
622.808	26.7
623.141	26.65
623.474	26.65
623.808	26.69
624.141	26.7
624.474	26.68
624.807	26.7
625.141	26.66
625.474	26.63
625.807	26.64
626.14	26.68
626.473	26.66
626.806	26.66
627.138	26.64
627.471	26.66
627.804	26.69
628.137	26.67
628.469	26.66
628.802	26.64
629.135	26.63
629.467	26.59
629.8	26.6
630.132	26.61
630.465	26.57
630.797	26.5
631.129	26.47
631.461	26.44
631.794	26.39
632.126	26.4
632.458	26.4
632.79	26.45
633.122	26.39
633.454	26.44
633.786	26.42
634.118	26.44
634.45	26.42
634.781	26.38
635.113	26.35
635.445	26.33
635.777	26.35
636.108	26.33
636.44	26.3
636.771	26.29
637.103	26.22
637.434	26.21
637.765	26.2
638.097	26.16
638.428	26.15
638.759	26.11
639.09	26.02
639.422	25.98
639.753	25.94
640.084	25.92
640.415	25.88
640.746	25.85
641.077	25.84
641.407	25.81
641.738	25.78
642.069	25.76
642.4	25.77
642.73	25.76
643.061	25.72
643.392	25.77
643.722	25.73
644.053	25.73
644.383	25.69
644.713	25.69
645.044	25.65
645.374	25.69
645.704	25.75
646.034	25.84
646.365	25.86
646.695	25.83
647.025	25.87
647.355	25.84
647.685	25.87
648.015	25.87
648.344	25.88
648.674	25.95
649.004	25.98
649.334	25.99
649.663	26
649.993	26.03
650.323	26
650.652	25.98
650.982	26.01
651.311	26.02
651.64	26.02
651.97	26.04
652.299	26.01
652.628	26.01
652.958	26.01
653.287	26.03
653.616	26.04
653.945	26.04
654.274	26.02
654.603	26.04
654.932	26.03
655.261	26
655.589	25.98
655.918	26.05
656.247	26.11
656.576	26.09
656.904	26.11
657.233	26.15
657.561	26.2
657.89	26.24
658.218	26.2
658.547	26.21
658.875	26.21
659.203	26.25
659.532	26.17
659.86	26.15
660.188	26.14
660.516	26.14
660.844	26.12
661.172	26.13
661.5	26.04
661.828	26.01
662.156	25.97
662.484	25.95
662.811	25.88
663.139	25.81
663.467	25.78
663.794	25.73
664.122	25.73
664.45	25.7
664.777	25.68
665.104	25.75
665.432	25.72
665.759	25.73
666.086	25.67
666.414	25.75
666.741	25.75
667.068	25.69
667.395	25.65
667.722	25.58
668.049	25.54
668.376	25.58
668.703	25.62
669.03	25.69
669.357	25.71
669.683	25.67
670.01	25.64
670.337	25.65
670.663	25.66
670.99	25.61
671.317	25.52
671.643	25.52
671.969	25.53
672.296	25.48
672.622	25.45
672.948	25.42
673.275	25.31
673.601	25.31
673.927	25.38
674.253	25.41
674.579	25.48
674.905	25.51
675.231	25.51
675.557	25.56
675.883	25.54
676.209	25.53
676.534	25.6
676.86	25.71
677.186	25.74
677.511	25.77
677.837	25.75
678.162	25.84
678.488	25.77
678.813	25.76
679.139	25.85
679.464	25.87
679.789	25.9
680.114	26.02
680.44	26.1
680.765	26.07
681.09	26.08
681.415	26.04
681.74	26.02
682.065	26.01
682.39	26.01
682.714	26.03
683.039	26.04
683.364	26.01
683.689	25.91
684.013	25.85
684.338	25.79
684.662	25.84
684.987	25.81
685.311	25.79
685.636	25.82
685.96	25.75
686.284	25.75
686.608	25.79
686.933	25.74
687.257	25.71
687.581	25.71
687.905	25.74
688.229	25.8
688.553	25.83
688.877	25.83
689.201	25.77
689.524	25.76
689.848	25.72
690.172	25.69
690.496	25.71
690.819	25.73
691.143	25.74
691.466	25.64
691.79	25.6
692.113	25.65
692.436	25.51
692.76	25.5
693.083	25.46
693.406	25.4
693.729	25.39
694.053	25.3
694.376	25.31
694.699	25.3
695.022	25.38
695.344	25.49
695.667	25.66
695.99	25.65
696.313	25.77
696.636	25.79
696.958	25.87
697.281	25.89
697.604	25.95
697.926	25.92
698.249	26.01
698.571	26.04
698.893	25.99
699.216	26.01
699.538	25.93
699.86	25.93
700.182	25.89
700.504	25.84
700.827	25.86
701.149	25.87
701.471	25.82
701.793	25.66
702.114	25.58
702.436	25.37
702.758	25.27
703.08	25.02
703.401	24.89
703.723	24.77
704.045	24.62
704.366	24.48
704.688	24.51
705.009	24.51
705.331	24.47
705.652	24.56
705.973	24.67
706.294	24.84
706.616	24.92
706.937	25
707.258	25.14
707.579	25.17
707.9	25.22
708.221	25.32
708.542	25.36
708.863	25.41
709.183	25.41
709.504	25.5
709.825	25.58
710.145	25.66
710.466	25.63
710.787	25.74
711.107	25.83
711.427	25.74
711.748	25.7
712.068	25.66
712.388	25.59
712.709	25.6
713.029	25.64
713.349	25.59
713.669	25.54
713.989	25.5
714.309	25.52
714.629	25.4
714.949	25.34
715.269	25.33
715.589	25.24
715.908	25.35
716.228	25.4
716.548	25.39
716.867	25.39
717.187	25.43
717.506	25.41
717.826	25.39
718.145	25.46
718.465	25.44
718.784	25.56
719.103	25.5
719.422	25.47
719.741	25.39
720.061	25.45
720.38	25.58
720.699	25.65
721.018	25.68
721.336	25.76
721.655	25.93
721.974	26.09
722.293	26.3
722.612	26.26
722.93	26.19
723.249	26.37
723.567	26.52
723.886	26.68
724.204	26.77
724.523	26.86
724.841	26.99
725.159	27.18
725.477	27.26
725.796	27.57
726.114	27.87
726.432	27.99
726.75	28.14
727.068	28.13
727.386	28.22
727.704	28.34
728.022	28.4
728.339	28.39
728.657	28.51
728.975	28.47
729.292	28.71
729.61	28.95
729.928	28.9
730.245	29.02
730.562	29.14
730.88	29.31
731.197	29.44
731.514	29.62
731.832	29.76
732.149	29.91
732.466	29.92
732.783	29.89
733.1	30.02
733.417	30.12
733.734	30.29
734.051	30.38
734.368	30.49
734.684	30.64
735.001	30.72
735.318	30.73
735.634	30.97
735.951	30.99
736.268	31.11
736.584	31.31
736.9	31.4
737.217	31.37
737.533	31.4
737.849	31.57
738.166	31.61
738.482	31.64
738.798	31.8
739.114	32.01
739.43	32.2
739.746	32.28
740.062	32.39
740.378	32.44
740.693	32.57
741.009	32.72
741.325	32.81
741.641	33.02
741.956	33.2
742.272	33.27
742.587	33.31
742.903	33.31
743.218	33.41
743.533	33.37
743.849	33.6
744.164	33.63
744.479	33.59
744.794	33.71
745.109	33.76
745.424	33.69
745.739	33.58
746.054	33.61
746.369	33.7
746.684	33.74
746.999	33.77
747.313	33.82
747.628	33.8
747.943	33.81
748.257	33.67
748.572	33.65
748.886	33.73
749.201	33.9
749.515	34.04
749.829	34.06
750.144	34.36
750.458	34.41
750.772	34.51
751.086	34.62
751.4	34.61
751.714	34.54
752.028	34.68
752.342	34.85
752.656	34.85
752.97	34.79
753.284	34.73
753.597	35
753.911	35.07
754.225	35.11
754.538	35.34
754.852	35.58
755.165	35.66
755.478	35.63
755.792	35.61
756.105	35.65
756.418	35.68
756.731	35.52
757.045	35.6
757.358	35.64
757.671	35.67
757.984	35.75
758.297	35.95
758.609	35.93
758.922	36.05
759.235	36.07
759.548	36.12
759.86	36.25
760.173	36.04
760.486	35.84
760.798	35.62
761.111	35.57
761.423	35.44
761.735	35.44
762.048	35.4
762.36	35.41
762.672	35.42
762.984	35.51
763.296	35.5
763.608	35.47
763.92	35.49
764.232	35.54
764.544	35.59
764.856	35.61
765.168	35.82
765.48	35.82
765.791	35.92
766.103	36.16
766.414	36.22
766.726	36.59
767.037	36.95
767.349	37.24
767.66	37.52
767.972	37.95
768.283	38.38
768.594	38.75
768.905	39.09
769.216	39.36
769.527	39.76
769.838	40.14
770.149	40.39
770.46	40.69
770.771	40.92
771.082	41.07
771.393	41.31
771.703	41.29
772.014	41.47
772.324	41.71
772.635	41.98
772.945	42.36
773.256	42.29
773.566	42.45
773.877	42.73
774.187	42.83
774.497	42.76
774.807	42.59
775.117	42.74
775.427	42.81
775.737	42.87
776.047	42.91
776.357	43.17
776.667	43.31
776.977	43.22
777.287	43.3
777.596	43.54
777.906	43.6
778.216	43.63
778.525	43.65
778.835	43.55
779.144	43.45
779.453	43.41
779.763	43.57
780.072	43.69
780.381	43.88
780.69	43.96
781	44.04
781.309	44.39
781.618	44.51
781.927	44.44
782.235	44.59
782.544	44.54
782.853	44.55
783.162	44.46
783.471	44.63
783.779	44.79
784.088	44.76
784.396	44.99
784.705	44.97
785.013	45.04
785.322	44.77
785.63	44.41
785.938	44.36
786.246	44.36
786.554	44.34
786.863	44.13
787.171	44.3
787.479	44.56
787.787	44.53
788.094	44.61
788.402	44.75
788.71	44.68
789.018	44.61
789.326	44.46
789.633	44.78
789.941	45.05
790.248	45.13
790.556	45.13
790.863	45.05
791.171	45.16
791.478	45.29
791.785	45.83
792.092	46.18
792.399	46.39
792.707	46.47
793.014	46.42
793.321	46.56
793.628	46.32
793.934	46.09
794.241	45.95
794.548	45.64
794.855	45.58
795.161	45.6
795.468	45.7
795.775	45.86
796.081	45.62
796.388	45.43
796.694	45.5
797	45.62
797.307	45.7
797.613	45.85
797.919	45.87
798.225	45.95
798.531	46.09
798.837	46.09
799.143	46.17
799.449	46.35
799.755	46.69
800.061	47.09
800.367	47.42
800.672	47.82
800.978	48.37
801.284	48.68
801.589	48.91
801.895	48.82
802.2	49.08
802.506	49.32
802.811	49.52
803.116	49.31
803.421	49.42
803.727	49.71
804.032	49.99
804.337	49.88
804.642	49.57
804.947	49.62
805.252	49.65
805.556	49.5
805.861	49.44
806.166	49.49
806.471	49.41
806.775	49.41
807.08	49.44
807.384	49.36
807.689	49.34
807.993	49.6
808.298	49.85
808.602	49.96
808.906	50
809.211	50.1
809.515	50.39
809.819	50.54
810.123	50.49
810.427	50.24
810.731	50.64
811.035	51.02
811.338	51.07
811.642	51.27
811.946	51.54
812.25	51.63
812.553	51.54
812.857	51.32
813.16	51.37
813.464	51.37
813.767	51.4
814.07	51.04
814.374	50.96
814.677	51.29
814.98	51.21
815.283	51.15
815.586	51.19
815.889	51.09
816.192	51
816.495	50.94
816.798	50.95
817.101	50.58
817.404	50.17
817.706	49.48
818.009	48.88
818.312	48.08
818.614	47.24
818.917	45.48
819.219	43.94
819.521	42.19
819.824	40.55
820.126	39.22
820.428	38.53
820.73	37.77
821.032	37.15
821.334	36.81
821.636	36.57
821.938	36.33
822.24	36.16
822.542	36.07
822.844	36.01
823.145	35.82
823.447	35.8
823.749	35.76
824.05	35.74
824.352	35.58
824.653	35.46
824.955	35.41
825.256	35.48
825.557	35.56
825.858	35.77
826.16	36.02
826.461	36.42
826.762	36.72
827.063	37.12
827.364	37.62
827.665	37.94
827.965	38.28
828.266	38.68
828.567	39.08
828.868	39.25
829.168	39.46
829.469	39.83
829.769	39.8
830.07	39.9
830.37	40.22
830.67	40.81
830.971	41.38
831.271	41.85
831.571	42.28
831.871	42.52
832.171	42.78
832.471	42.89
832.771	43.06
833.071	43.4
833.371	43.63
833.671	43.7
833.971	43.9
834.27	44.18
834.57	44.39
834.869	44.25
835.169	44.33
835.468	44.34
835.768	44.43
836.067	44.55
836.367	44.99
836.666	45.29
836.965	45.56
837.264	46.14
837.563	46.84
837.862	47.7
838.161	48.78
838.46	49.23
838.759	50.2
839.058	51.23
839.356	51.85
839.655	52.78
839.954	53.24
840.252	54.23
840.551	54.8
840.849	55.23
841.148	56.11
841.446	56.98
841.744	57.76
842.043	58.25
842.341	59.13
842.639	59.22
842.937	59.66
843.235	60.57
843.533	60.96
843.831	61.65
844.129	62.43
844.427	62.95
844.724	64.27
845.022	64.75
845.32	64.7
845.617	65.22
845.915	65.74
846.212	67.46
846.51	67.87
846.807	68.02
847.104	68.06
847.402	68.29
847.699	68.35
847.996	68.41
848.293	68.95
848.59	68.59
848.887	68.12
849.184	68.23
849.481	68.03
849.778	68.8
850.074	68.14
850.371	67.66
850.668	67.71
850.964	67.62
851.261	68.56
851.557	69.51
851.854	69.85
852.15	69.98
852.446	68.82
852.743	68.4
853.039	68.31
853.335	69.25
853.631	69.45
853.927	68.99
854.223	68.58
854.519	67.94
854.815	68.46
855.111	69.03
855.406	69.04
855.702	68.9
855.998	67.91
856.293	68.71
856.589	69.77
856.884	70.97
857.18	72.04
857.475	71.81
857.77	71.56
858.066	71.86
858.361	71.85
858.656	72.21
858.951	71.57
859.246	71.22
859.541	70.41
859.836	70.36
860.131	70.35
860.426	69.41
860.72	69.99
861.015	69.9
861.31	70.57
861.604	70.06
861.899	70.61
862.193	71.73
862.487	72.03
862.782	73.01
863.076	72.49
863.37	71.42
863.664	71.73
863.959	71.73
864.253	71.26
864.547	71.67
864.841	71.85
865.135	71.9
865.428	72.43
865.722	72.87
866.016	73.21
866.31	74.13
866.603	75.31
866.897	75.73
867.19	76.21
867.484	76.14
867.777	76.44
868.07	76.02
868.364	75.55
868.657	75.43
868.95	74.14
869.243	73.67
869.536	73.99
869.829	74.39
870.122	73.99
870.415	74.07
870.708	73.31
871	72.94
871.293	73.33
871.586	72.41
871.878	72.04
872.171	71.09
872.463	69.84
872.756	69.31
873.048	69.09
873.341	68.72
873.633	68.15
873.925	67.99
874.217	68.01
874.509	67.66
874.801	66.96
875.093	66.57
875.385	65.93
875.677	65.14
875.969	63.61
