Data from pcis_p_h3_p5_Reflection_2.txt Node
Date: Wed Jul 12 17:54:48 ART 2017
User: rodoncho
Spectrometer: USB2E3644
Trigger mode: 4
Integration Time (sec): 6.000000E-2
Scans to average: 10
Electric dark correction enabled: true
Nonlinearity correction enabled: false
Boxcar width: 10
XAxis mode: Wavelengths
Number of Pixels in Spectrum: 2048
>>>>>Begin Spectral Data<<<<<
178.315	179.43
178.696	145.1
179.076	104.6
179.457	195.24
179.838	123.33
180.218	26.67
180.599	-38.33
180.979	55
181.36	-33.33
181.74	-20.43
182.121	-22.92
182.501	109.03
182.881	113.81
183.262	128.46
183.642	-133.33
184.022	131.88
184.402	91.41
184.783	70.28
185.163	80.38
185.543	85.74
185.923	82.91
186.303	95.51
186.683	95.26
187.063	94.28
187.443	102.13
187.823	98.27
188.203	98.04
188.583	100.77
188.963	108.12
189.343	108.58
189.723	110.99
190.102	114.04
190.482	111.83
190.862	110.28
191.242	117.2
191.621	123.15
192.001	126.18
192.38	133.49
192.76	136.61
193.14	131.43
193.519	131.64
193.898	134.17
194.278	127.93
194.657	125.96
195.037	125.69
195.416	123.52
195.795	124.08
196.175	125.75
196.554	123.4
196.933	123.59
197.312	126.13
197.692	128.17
198.071	126.04
198.45	122.67
198.829	120.16
199.208	116.85
199.587	115.3
199.966	111.68
200.345	110.19
200.724	109.61
201.103	110.5
201.482	109.55
201.86	108.3
202.239	107.55
202.618	108.19
202.997	109.77
203.375	111.34
203.754	109.82
204.133	108.48
204.511	108.52
204.89	108.01
205.269	107.84
205.647	106.92
206.026	109.81
206.404	111.53
206.782	113.34
207.161	114.13
207.539	113.77
207.918	114.86
208.296	115.13
208.674	115.78
209.052	115.34
209.431	115.28
209.809	115.89
210.187	115.82
210.565	115.42
210.943	114.42
211.321	113.04
211.699	111.78
212.077	110.31
212.455	110.07
212.833	108.88
213.211	108.08
213.589	107.44
213.967	104.68
214.345	104.1
214.722	104.31
215.1	103.36
215.478	103.9
215.855	104.63
216.233	103.97
216.611	103.5
216.988	103.66
217.366	104.91
217.743	105.09
218.121	106.87
218.498	107.14
218.876	104.72
219.253	104.5
219.631	105.54
220.008	106.88
220.385	106.56
220.762	106.11
221.14	105.94
221.517	104.8
221.894	104.65
222.271	104.1
222.648	103.69
223.025	105.16
223.402	105.67
223.78	107.19
224.157	108.37
224.533	110.51
224.91	111.93
225.287	112.13
225.664	113.29
226.041	111.8
226.418	110.29
226.795	111.33
227.171	111.8
227.548	112.79
227.925	112.72
228.301	112.89
228.678	113.51
229.055	112.44
229.431	113.34
229.808	112.52
230.184	114.21
230.561	114.75
230.937	115.45
231.313	115.55
231.69	114.56
232.066	114.2
232.442	112.51
232.819	111.59
233.195	111.41
233.571	109.01
233.947	108.98
234.323	111.07
234.699	112.22
235.075	112.85
235.451	114.92
235.827	115.52
236.203	116.22
236.579	116.41
236.955	118.56
237.331	120.04
237.707	123.78
238.083	124.77
238.459	127.77
238.834	131.29
239.21	135.44
239.586	140.56
239.961	144.97
240.337	147.04
240.713	147.89
241.088	148.26
241.464	154.52
241.839	161.35
242.215	168.36
242.59	182.53
242.965	212.31
243.341	257.34
243.716	334.9
244.091	477.19
244.467	754.08
244.842	1219.31
245.217	3624.6
245.592	50677.78
245.967	-5404.76
246.343	-6313.89
246.718	-152933.33
247.093	-15123.33
247.468	-9383.33
247.843	-4266.67
248.218	-1655.93
248.593	-955.34
248.967	-653.65
249.342	-593.81
249.717	-624.22
250.092	-673.07
250.467	-845.49
250.841	-1749.81
251.216	4040.35
251.591	1068.51
251.965	645.4
252.34	504.95
252.714	441.1
253.089	398.09
253.463	385.52
253.838	389.27
254.212	415.37
254.587	471.36
254.961	545.54
255.335	758.18
255.71	2329.47
256.084	-1180.25
256.458	-464.3
256.832	-298.51
257.206	-235.57
257.581	-205.4
257.955	-184.35
258.329	-171.1
258.703	-158.38
259.077	-147.72
259.451	-139.73
259.825	-133.8
260.199	-129.51
260.572	-124.27
260.946	-118.16
261.32	-116.48
261.694	-113.36
262.068	-110.62
262.441	-108.77
262.815	-108.48
263.189	-108.37
263.562	-115.02
263.936	-131.77
264.309	-156.41
264.683	-190.98
265.056	-216.17
265.43	-231.61
265.803	-229.63
266.176	-218.68
266.55	-218.67
266.923	-209.29
267.296	-197.67
267.67	-186.18
268.043	-168.45
268.416	-152.69
268.789	-139.9
269.162	-124.36
269.535	-115.27
269.908	-110.54
270.281	-106.7
270.654	-105.13
271.027	-107.76
271.4	-109.64
271.773	-110.5
272.146	-109.1
272.519	-103.03
272.891	-99.53
273.264	-98.5
273.637	-99.68
274.01	-100.3
274.382	-98.16
274.755	-97.54
275.127	-97.06
275.5	-97.05
275.872	-98.41
276.245	-99.16
276.617	-103.06
276.99	-108.15
277.362	-111.46
277.734	-110.1
278.107	-108.58
278.479	-103.4
278.851	-99.1
279.223	-93.68
279.596	-91.24
279.968	-89.06
280.34	-89.37
280.712	-85.94
281.084	-80.33
281.456	-72.14
281.828	-65.89
282.2	-60.83
282.572	-57.26
282.944	-54.68
283.315	-53.34
283.687	-52.54
284.059	-52.43
284.431	-51.29
284.802	-50.48
285.174	-49.27
285.546	-47.8
285.917	-47.03
286.289	-46.22
286.66	-44.99
287.032	-44.94
287.403	-44.24
287.775	-43.81
288.146	-43.09
288.518	-42.71
288.889	-42.84
289.26	-44.41
289.632	-45.98
290.003	-47.47
290.374	-48.84
290.745	-50.09
291.116	-49.33
291.487	-47.9
291.858	-45.99
292.229	-45.04
292.6	-43.83
292.971	-42.59
293.342	-40.43
293.713	-38.23
294.084	-36.72
294.455	-35.62
294.826	-34.59
295.196	-34.55
295.567	-34.41
295.938	-34.45
296.308	-34.75
296.679	-33.83
297.05	-33.22
297.42	-32.38
297.791	-30.99
298.161	-29.81
298.532	-28.49
298.902	-27.78
299.272	-27.11
299.643	-26.79
300.013	-26.03
300.383	-25.33
300.754	-25.02
301.124	-25.79
301.494	-26.05
301.864	-26.09
302.234	-25.95
302.604	-26.07
302.974	-25.84
303.344	-25.54
303.714	-25.62
304.084	-25.21
304.454	-25.07
304.824	-24.01
305.194	-23.1
305.563	-22.29
305.933	-21.1
306.303	-19.69
306.673	-18.98
307.042	-18.26
307.412	-17.64
307.781	-16.66
308.151	-15.74
308.521	-14.99
308.89	-14.29
309.259	-14.03
309.629	-14.12
309.998	-14.12
310.368	-14.14
310.737	-13.73
311.106	-13.48
311.475	-12.6
311.845	-11.81
312.214	-11.08
312.583	-10.97
312.952	-10.64
313.321	-10.61
313.69	-10.45
314.059	-10.93
314.428	-11.23
314.797	-12
315.166	-12.57
315.535	-13.03
315.904	-13.37
316.272	-13.52
316.641	-13.47
317.01	-13.03
317.379	-12.54
317.747	-12.3
318.116	-11.59
318.484	-11.18
318.853	-10.75
319.221	-10.42
319.59	-10.18
319.958	-10.15
320.327	-9.87
320.695	-9.72
321.063	-9.42
321.432	-9.11
321.8	-8.65
322.168	-7.86
322.536	-6.56
322.905	-5.23
323.273	-4.57
323.641	-4.17
324.009	-4.06
324.377	-3.6
324.745	-3.57
325.113	-3.43
325.481	-2.81
325.849	-2.35
326.216	-1.88
326.584	-1.17
326.952	-0.79
327.32	-0.35
327.687	0.05
328.055	0.56
328.423	1.07
328.79	1.28
329.158	1.51
329.525	2.05
329.893	2.47
330.26	2.53
330.628	2.55
330.995	2.76
331.362	3.14
331.73	3.83
332.097	4.04
332.464	4.39
332.831	4.99
333.199	5.21
333.566	5.47
333.933	5.38
334.3	5.16
334.667	5.42
335.034	5.45
335.401	5.61
335.768	5.58
336.135	5.54
336.502	5.75
336.868	6.03
337.235	6.24
337.602	6.42
337.969	6.75
338.335	7.17
338.702	7.57
339.069	7.77
339.435	7.95
339.802	8.3
340.168	8.47
340.535	8.59
340.901	8.59
341.267	8.62
341.634	8.92
342	9.31
342.366	9.51
342.733	9.67
343.099	9.92
343.465	10.22
343.831	10.49
344.197	10.73
344.563	10.77
344.929	10.81
345.295	11.04
345.661	11.22
346.027	11.19
346.393	11.27
346.759	11.4
347.125	11.5
347.491	11.55
347.856	11.77
348.222	11.9
348.588	12.16
348.953	12.32
349.319	12.54
349.684	12.57
350.05	12.65
350.415	12.9
350.781	12.96
351.146	13.11
351.512	13.21
351.877	13.33
352.242	13.41
352.608	13.54
352.973	13.47
353.338	13.46
353.703	13.65
354.068	13.79
354.433	13.92
354.798	14.07
355.164	14.14
355.528	14.2
355.893	14.19
356.258	14.33
356.623	14.61
356.988	14.72
357.353	14.89
357.718	15.02
358.082	15.13
358.447	15.1
358.812	15.18
359.176	15.38
359.541	15.47
359.905	15.58
360.27	15.6
360.634	15.74
360.999	15.89
361.363	15.97
361.728	16
362.092	16.06
362.456	16.01
362.821	16.05
363.185	16.12
363.549	16.23
363.913	16.21
364.277	16.17
364.641	16.19
365.005	16.24
365.369	16.2
365.733	16.15
366.097	16.28
366.461	16.27
366.825	16.22
367.189	16.32
367.553	16.44
367.916	16.62
368.28	16.69
368.644	16.82
369.007	16.86
369.371	16.88
369.734	16.88
370.098	17.03
370.461	17.18
370.825	17.31
371.188	17.42
371.552	17.5
371.915	17.58
372.278	17.66
372.642	17.75
373.005	17.86
373.368	17.94
373.731	18.04
374.094	18.08
374.457	18.16
374.82	18.15
375.183	18.1
375.546	18.09
375.909	18.12
376.272	18.08
376.635	18.09
376.998	18.07
377.361	18.1
377.723	18.07
378.086	18.03
378.449	18.02
378.811	18.05
379.174	18.11
379.537	18.16
379.899	18.28
380.262	18.3
380.624	18.29
380.987	18.33
381.349	18.28
381.711	18.32
382.074	18.29
382.436	18.31
382.798	18.37
383.16	18.33
383.522	18.36
383.884	18.38
384.247	18.51
384.609	18.58
384.971	18.6
385.333	18.6
385.695	18.65
386.056	18.63
386.418	18.64
386.78	18.63
387.142	18.57
387.504	18.47
387.865	18.46
388.227	18.43
388.589	18.39
388.95	18.44
389.312	18.41
389.673	18.4
390.035	18.39
390.396	18.33
390.758	18.32
391.119	18.28
391.48	18.25
391.842	18.11
392.203	18.03
392.564	18.04
392.925	18.02
393.286	17.97
393.648	17.94
394.009	17.88
394.37	17.78
394.731	17.74
395.092	17.69
395.452	17.62
395.813	17.57
396.174	17.54
396.535	17.43
396.896	17.38
397.257	17.34
397.617	17.3
397.978	17.25
398.338	17.22
398.699	17.19
399.06	17.15
399.42	17.12
399.781	17.09
400.141	16.98
400.501	16.93
400.862	16.86
401.222	16.79
401.582	16.74
401.943	16.73
402.303	16.69
402.663	16.68
403.023	16.66
403.383	16.66
403.743	16.64
404.103	16.66
404.463	16.67
404.823	16.68
405.183	16.63
405.543	16.71
405.903	16.72
406.262	16.69
406.622	16.68
406.982	16.69
407.342	16.7
407.701	16.75
408.061	16.77
408.42	16.8
408.78	16.82
409.139	16.84
409.499	16.85
409.858	16.9
410.217	16.89
410.577	16.9
410.936	16.89
411.295	16.85
411.655	16.82
412.014	16.78
412.373	16.73
412.732	16.69
413.091	16.62
413.45	16.55
413.809	16.52
414.168	16.42
414.527	16.32
414.886	16.22
415.245	16.09
415.603	15.96
415.962	15.81
416.321	15.7
416.679	15.6
417.038	15.47
417.397	15.34
417.755	15.22
418.114	15.1
418.472	14.99
418.831	14.92
419.189	14.83
419.547	14.72
419.906	14.64
420.264	14.55
420.622	14.45
420.981	14.38
421.339	14.28
421.697	14.22
422.055	14.16
422.413	14.11
422.771	14.07
423.129	14.03
423.487	14.03
423.845	14
424.203	13.98
424.56	13.96
424.918	13.95
425.276	13.97
425.634	13.96
425.991	13.96
426.349	13.97
426.707	13.97
427.064	13.99
427.422	14.01
427.779	14.04
428.137	14.07
428.494	14.1
428.851	14.14
429.209	14.15
429.566	14.18
429.923	14.18
430.28	14.21
430.637	14.26
430.995	14.26
431.352	14.27
431.709	14.29
432.066	14.32
432.423	14.34
432.78	14.35
433.137	14.39
433.493	14.42
433.85	14.43
434.207	14.44
434.564	14.47
434.92	14.47
435.277	14.49
435.634	14.5
435.99	14.48
436.347	14.51
436.703	14.53
437.06	14.55
437.416	14.56
437.773	14.58
438.129	14.59
438.485	14.59
438.841	14.59
439.198	14.59
439.554	14.57
439.91	14.58
440.266	14.55
440.622	14.53
440.978	14.5
441.334	14.46
441.69	14.42
442.046	14.36
442.402	14.29
442.758	14.21
443.113	14.13
443.469	14.08
443.825	14.01
444.181	13.94
444.536	13.89
444.892	13.83
445.247	13.78
445.603	13.71
445.958	13.67
446.314	13.62
446.669	13.57
447.025	13.53
447.38	13.47
447.735	13.42
448.09	13.37
448.446	13.33
448.801	13.29
449.156	13.26
449.511	13.23
449.866	13.21
450.221	13.2
450.576	13.19
450.931	13.16
451.286	13.13
451.641	13.14
451.995	13.12
452.35	13.15
452.705	13.13
453.06	13.13
453.414	13.13
453.769	13.14
454.123	13.13
454.478	13.13
454.832	13.14
455.187	13.14
455.541	13.15
455.896	13.16
456.25	13.18
456.604	13.19
456.958	13.18
457.313	13.19
457.667	13.21
458.021	13.26
458.375	13.32
458.729	13.38
459.083	13.44
459.437	13.51
459.791	13.54
460.145	13.62
460.499	13.69
460.852	13.76
461.206	13.83
461.56	13.93
461.914	14.01
462.267	14.11
462.621	14.24
462.974	14.36
463.328	14.53
463.681	14.69
464.035	14.87
464.388	15.06
464.742	15.22
465.095	15.38
465.448	15.53
465.801	15.66
466.155	15.77
466.508	15.86
466.861	15.95
467.214	16.07
467.567	16.17
467.92	16.27
468.273	16.34
468.626	16.42
468.979	16.49
469.332	16.55
469.684	16.61
470.037	16.67
470.39	16.72
470.743	16.75
471.095	16.78
471.448	16.82
471.8	16.86
472.153	16.88
472.505	16.91
472.858	16.89
473.21	16.84
473.562	16.82
473.915	16.77
474.267	16.71
474.619	16.66
474.971	16.56
475.324	16.46
475.676	16.37
476.028	16.3
476.38	16.2
476.732	16.09
477.084	15.96
477.436	15.85
477.787	15.73
478.139	15.6
478.491	15.5
478.843	15.35
479.195	15.18
479.546	14.97
479.898	14.73
480.249	14.5
480.601	14.34
480.952	14.19
481.304	14.08
481.655	13.98
482.007	13.9
482.358	13.83
482.709	13.78
483.061	13.74
483.412	13.7
483.763	13.67
484.114	13.66
484.465	13.63
484.816	13.61
485.167	13.6
485.518	13.6
485.869	13.6
486.22	13.61
486.571	13.63
486.922	13.66
487.272	13.71
487.623	13.79
487.974	13.89
488.324	14.02
488.675	14.14
489.025	14.28
489.376	14.39
489.726	14.51
490.077	14.64
490.427	14.77
490.778	14.91
491.128	15.06
491.478	15.23
491.828	15.46
492.179	15.7
492.529	15.95
492.879	16.19
493.229	16.44
493.579	16.69
493.929	16.91
494.279	17.14
494.629	17.4
494.979	17.7
495.328	18.05
495.678	18.45
496.028	18.84
496.378	19.21
496.727	19.59
497.077	19.96
497.426	20.28
497.776	20.59
498.125	20.89
498.475	21.2
498.824	21.5
499.174	21.78
499.523	22.07
499.872	22.37
500.221	22.68
500.571	23.04
500.92	23.39
501.269	23.76
501.618	24.1
501.967	24.45
502.316	24.78
502.665	25.11
503.014	25.42
503.363	25.76
503.711	26.08
504.06	26.34
504.409	26.62
504.758	26.9
505.106	27.16
505.455	27.44
505.803	27.68
506.152	27.9
506.5	28.11
506.849	28.33
507.197	28.54
507.546	28.75
507.894	28.93
508.242	29.08
508.59	29.24
508.939	29.41
509.287	29.57
509.635	29.74
509.983	29.88
510.331	30.01
510.679	30.15
511.027	30.24
511.375	30.4
511.723	30.52
512.07	30.64
512.418	30.74
512.766	30.85
513.114	30.99
513.461	31.08
513.809	31.2
514.156	31.3
514.504	31.4
514.851	31.47
515.199	31.54
515.546	31.64
515.893	31.72
516.241	31.79
516.588	31.85
516.935	31.91
517.282	31.98
517.63	32.04
517.977	32.08
518.324	32.15
518.671	32.17
519.018	32.22
519.365	32.28
519.711	32.33
520.058	32.37
520.405	32.41
520.752	32.46
521.099	32.5
521.445	32.56
521.792	32.59
522.138	32.63
522.485	32.68
522.832	32.73
523.178	32.78
523.524	32.81
523.871	32.85
524.217	32.86
524.563	32.86
524.91	32.86
525.256	32.89
525.602	32.91
525.948	32.95
526.294	32.94
526.64	32.93
526.986	32.95
527.332	32.95
527.678	32.95
528.024	32.97
528.37	32.98
528.716	32.98
529.061	32.99
529.407	33.01
529.753	33.02
530.098	33.04
530.444	33.05
530.789	33.05
531.135	33.05
531.48	33.08
531.826	33.11
532.171	33.14
532.516	33.17
532.862	33.19
533.207	33.18
533.552	33.2
533.897	33.22
534.242	33.24
534.587	33.26
534.932	33.28
535.277	33.28
535.622	33.31
535.967	33.34
536.312	33.36
536.657	33.39
537.001	33.42
537.346	33.42
537.691	33.42
538.035	33.43
538.38	33.45
538.724	33.43
539.069	33.42
539.413	33.4
539.758	33.38
540.102	33.4
540.446	33.41
540.791	33.44
541.135	33.45
541.479	33.45
541.823	33.45
542.167	33.44
542.512	33.44
542.856	33.43
543.2	33.4
543.543	33.39
543.887	33.37
544.231	33.38
544.575	33.41
544.919	33.41
545.262	33.42
545.606	33.42
545.95	33.45
546.293	33.47
546.637	33.49
546.98	33.51
547.324	33.51
547.667	33.54
548.011	33.53
548.354	33.52
548.697	33.52
549.04	33.53
549.384	33.54
549.727	33.56
550.07	33.55
550.413	33.56
550.756	33.58
551.099	33.58
551.442	33.57
551.785	33.55
552.128	33.56
552.47	33.55
552.813	33.56
553.156	33.56
553.499	33.55
553.841	33.51
554.184	33.53
554.526	33.52
554.869	33.5
555.211	33.5
555.554	33.5
555.896	33.49
556.238	33.49
556.581	33.46
556.923	33.43
557.265	33.41
557.607	33.4
557.949	33.39
558.291	33.37
558.633	33.33
558.975	33.32
559.317	33.29
559.659	33.28
560.001	33.23
560.343	33.19
560.685	33.15
561.026	33.17
561.368	33.1
561.71	33.04
562.051	33
562.393	32.98
562.734	32.94
563.076	32.9
563.417	32.86
563.759	32.85
564.1	32.85
564.441	32.84
564.782	32.83
565.124	32.8
565.465	32.79
565.806	32.77
566.147	32.76
566.488	32.71
566.829	32.69
567.17	32.69
567.511	32.67
567.851	32.66
568.192	32.64
568.533	32.65
568.874	32.69
569.214	32.67
569.555	32.64
569.895	32.64
570.236	32.63
570.576	32.64
570.917	32.62
571.257	32.6
571.598	32.59
571.938	32.55
572.278	32.52
572.618	32.5
572.959	32.52
573.299	32.45
573.639	32.48
573.979	32.45
574.319	32.44
574.659	32.38
574.999	32.35
575.339	32.32
575.678	32.28
576.018	32.23
576.358	32.19
576.698	32.17
577.037	32.13
577.377	32.05
577.716	32.03
578.056	31.99
578.395	31.95
578.735	31.91
579.074	31.85
579.413	31.83
579.753	31.83
580.092	31.8
580.431	31.85
580.77	31.84
581.109	31.83
581.448	31.81
581.787	31.83
582.126	31.81
582.465	31.81
582.804	31.75
583.143	31.7
583.482	31.7
583.82	31.68
584.159	31.62
584.498	31.62
584.836	31.59
585.175	31.57
585.514	31.56
585.852	31.59
586.19	31.61
586.529	31.59
586.867	31.57
587.205	31.54
587.544	31.55
587.882	31.49
588.22	31.5
588.558	31.49
588.896	31.5
589.234	31.49
589.572	31.46
589.91	31.49
590.248	31.52
590.586	31.51
590.924	31.5
591.262	31.53
591.599	31.56
591.937	31.56
592.275	31.53
592.612	31.51
592.95	31.42
593.287	31.39
593.625	31.4
593.962	31.39
594.299	31.4
594.637	31.4
594.974	31.42
595.311	31.39
595.648	31.38
595.985	31.34
596.322	31.29
596.659	31.3
596.996	31.29
597.333	31.27
597.67	31.24
598.007	31.21
598.344	31.18
598.681	31.16
599.017	31.13
599.354	31.14
599.691	31.16
600.027	31.18
600.364	31.21
600.7	31.22
601.037	31.2
601.373	31.2
601.71	31.21
602.046	31.22
602.382	31.22
602.718	31.23
603.054	31.27
603.391	31.34
603.727	31.32
604.063	31.29
604.399	31.29
604.735	31.31
605.071	31.33
605.406	31.36
605.742	31.35
606.078	31.37
606.414	31.39
606.749	31.39
607.085	31.41
607.421	31.42
607.756	31.38
608.092	31.37
608.427	31.34
608.762	31.28
609.098	31.22
609.433	31.21
609.768	31.19
610.104	31.15
610.439	31.09
610.774	31.1
611.109	31.13
611.444	31.09
611.779	31.04
612.114	31.01
612.449	30.95
612.784	30.93
613.118	30.9
613.453	30.82
613.788	30.75
614.123	30.69
614.457	30.61
614.792	30.6
615.126	30.53
615.461	30.52
615.795	30.47
616.13	30.49
616.464	30.46
616.798	30.41
617.132	30.41
617.467	30.4
617.801	30.36
618.135	30.32
618.469	30.33
618.803	30.35
619.137	30.35
619.471	30.36
619.805	30.35
620.139	30.33
620.472	30.32
620.806	30.33
621.14	30.27
621.473	30.27
621.807	30.25
622.141	30.31
622.474	30.31
622.808	30.31
623.141	30.34
623.474	30.36
623.808	30.43
624.141	30.48
624.474	30.51
624.807	30.48
625.141	30.48
625.474	30.49
625.807	30.47
626.14	30.49
626.473	30.52
626.806	30.51
627.138	30.53
627.471	30.52
627.804	30.56
628.137	30.6
628.469	30.56
628.802	30.52
629.135	30.48
629.467	30.45
629.8	30.47
630.132	30.44
630.465	30.41
630.797	30.37
631.129	30.32
631.461	30.3
631.794	30.37
632.126	30.37
632.458	30.4
632.79	30.38
633.122	30.4
633.454	30.4
633.786	30.4
634.118	30.4
634.45	30.41
634.781	30.34
635.113	30.36
635.445	30.37
635.777	30.42
636.108	30.44
636.44	30.44
636.771	30.4
637.103	30.35
637.434	30.31
637.765	30.31
638.097	30.29
638.428	30.26
638.759	30.21
639.09	30.2
639.422	30.17
639.753	30.16
640.084	30.15
640.415	30.12
640.746	30.15
641.077	30.12
641.407	30.11
641.738	30.13
642.069	30.14
642.4	30.16
642.73	30.19
643.061	30.18
643.392	30.19
643.722	30.23
644.053	30.24
644.383	30.32
644.713	30.29
645.044	30.31
645.374	30.26
645.704	30.26
646.034	30.23
646.365	30.2
646.695	30.22
647.025	30.2
647.355	30.21
647.685	30.17
648.015	30.24
648.344	30.22
648.674	30.31
649.004	30.3
649.334	30.29
649.663	30.25
649.993	30.23
650.323	30.28
650.652	30.31
650.982	30.38
651.311	30.36
651.64	30.42
651.97	30.41
652.299	30.5
652.628	30.5
652.958	30.5
653.287	30.52
653.616	30.56
653.945	30.58
654.274	30.53
654.603	30.6
654.932	30.55
655.261	30.65
655.589	30.57
655.918	30.62
656.247	30.72
656.576	30.81
656.904	30.9
657.233	30.89
657.561	30.9
657.89	30.91
658.218	30.84
658.547	30.83
658.875	30.89
659.203	30.86
659.532	30.91
659.86	30.94
660.188	30.89
660.516	30.92
660.844	30.91
661.172	30.93
661.5	30.89
661.828	30.88
662.156	30.8
662.484	30.79
662.811	30.75
663.139	30.72
663.467	30.66
663.794	30.56
664.122	30.53
664.45	30.48
664.777	30.43
665.104	30.5
665.432	30.52
665.759	30.44
666.086	30.4
666.414	30.39
666.741	30.41
667.068	30.48
667.395	30.46
667.722	30.51
668.049	30.54
668.376	30.55
668.703	30.58
669.03	30.62
669.357	30.7
669.683	30.61
670.01	30.6
670.337	30.51
670.663	30.51
670.99	30.51
671.317	30.5
671.643	30.56
671.969	30.56
672.296	30.52
672.622	30.56
672.948	30.6
673.275	30.56
673.601	30.58
673.927	30.53
674.253	30.5
674.579	30.45
674.905	30.42
675.231	30.41
675.557	30.45
675.883	30.46
676.209	30.5
676.534	30.59
676.86	30.57
677.186	30.68
677.511	30.74
677.837	30.75
678.162	30.79
678.488	30.81
678.813	30.78
679.139	30.79
679.464	30.78
679.789	30.83
680.114	30.86
680.44	30.82
680.765	30.85
681.09	30.87
681.415	30.82
681.74	30.86
682.065	30.91
682.39	30.87
682.714	30.79
683.039	30.71
683.364	30.67
683.689	30.64
684.013	30.6
684.338	30.56
684.662	30.58
684.987	30.56
685.311	30.57
685.636	30.63
685.96	30.6
686.284	30.61
686.608	30.59
686.933	30.6
687.257	30.6
687.581	30.62
687.905	30.64
688.229	30.79
688.553	30.8
688.877	30.83
689.201	30.89
689.524	30.89
689.848	30.98
690.172	30.94
690.496	31.04
690.819	31.01
691.143	31.05
691.466	31
691.79	30.94
692.113	30.86
692.436	30.82
692.76	30.85
693.083	30.86
693.406	30.86
693.729	30.88
694.053	30.91
694.376	30.87
694.699	30.93
695.022	30.92
695.344	30.94
695.667	31.01
695.99	31.1
696.313	31.25
696.636	31.31
696.958	31.44
697.281	31.46
697.604	31.56
697.926	31.54
698.249	31.64
698.571	31.7
698.893	31.6
699.216	31.53
699.538	31.54
699.86	31.51
700.182	31.48
700.504	31.46
700.827	31.49
701.149	31.47
701.471	31.39
701.793	31.28
702.114	31.22
702.436	31.12
702.758	30.97
703.08	30.88
703.401	30.67
703.723	30.55
704.045	30.45
704.366	30.41
704.688	30.45
705.009	30.32
705.331	30.35
705.652	30.55
705.973	30.63
706.294	30.47
706.616	30.51
706.937	30.58
707.258	30.63
707.579	30.73
707.9	30.78
708.221	30.84
708.542	30.84
708.863	30.84
709.183	30.78
709.504	30.88
709.825	30.91
710.145	31.06
710.466	31.07
710.787	31.01
711.107	30.9
711.427	30.9
711.748	30.86
712.068	30.88
712.388	30.92
712.709	30.88
713.029	30.99
713.349	31.05
713.669	31.01
713.989	31.12
714.309	31.06
714.629	31.12
714.949	31.01
715.269	31.08
715.589	31.06
715.908	31.14
716.228	31.13
716.548	31.17
716.867	31.11
717.187	31.15
717.506	31.22
717.826	31.35
718.145	31.43
718.465	31.55
718.784	31.68
719.103	31.65
719.422	31.76
719.741	31.85
720.061	31.8
720.38	31.95
720.699	31.94
721.018	31.96
721.336	31.96
721.655	32.13
721.974	32.21
722.293	32.31
722.612	32.41
722.93	32.51
723.249	32.66
723.567	32.77
723.886	32.81
724.204	33
724.523	33.06
724.841	33.09
725.159	33.28
725.477	33.24
725.796	33.37
726.114	33.65
726.432	33.81
726.75	33.9
727.068	33.82
727.386	33.77
727.704	33.97
728.022	34.19
728.339	34.33
728.657	34.47
728.975	34.57
729.292	34.57
729.61	34.62
729.928	34.49
730.245	34.52
730.562	34.66
730.88	34.77
731.197	34.88
731.514	34.97
731.832	34.9
732.149	35.09
732.466	35.13
732.783	35.12
733.1	35.23
733.417	35.37
733.734	35.6
734.051	35.7
734.368	35.78
734.684	35.86
735.001	35.99
735.318	36.1
735.634	36.31
735.951	36.55
736.268	36.61
736.584	36.81
736.9	37.06
737.217	37.12
737.533	37.16
737.849	37.26
738.166	37.28
738.482	37.46
738.798	37.49
739.114	37.56
739.43	37.74
739.746	37.88
740.062	37.91
740.378	37.89
740.693	37.99
741.009	38.07
741.325	37.97
741.641	38.11
741.956	38.08
742.272	38.03
742.587	38.16
742.903	38.32
743.218	38.5
743.533	38.36
743.849	38.7
744.164	38.81
744.479	38.99
744.794	39.24
745.109	39.39
745.424	39.5
745.739	39.58
746.054	39.65
746.369	39.65
746.684	39.77
746.999	39.92
747.313	40.07
747.628	40.15
747.943	40.31
748.257	40.37
748.572	40.65
748.886	40.89
749.201	40.84
749.515	40.84
749.829	40.81
750.144	41.02
750.458	40.99
750.772	41.05
751.086	40.97
751.4	41.04
751.714	41.19
752.028	41.27
752.342	41.42
752.656	41.46
752.97	41.38
753.284	41.39
753.597	41.44
753.911	41.56
754.225	41.57
754.538	41.59
754.852	41.6
755.165	41.6
755.478	41.54
755.792	41.47
756.105	41.59
756.418	41.79
756.731	41.8
757.045	41.84
757.358	41.95
757.671	42.01
757.984	42.2
758.297	42.26
758.609	42.38
758.922	42.57
759.235	42.52
759.548	42.66
759.86	42.58
760.173	42.64
760.486	42.59
760.798	42.37
761.111	42.36
761.423	42.23
761.735	42.18
762.048	42.13
762.36	42.25
762.672	42.34
762.984	42.35
763.296	42.39
763.608	42.35
763.92	42.38
764.232	42.46
764.544	42.34
764.856	42.34
765.168	42.23
765.48	42.07
765.791	42.26
766.103	42.52
766.414	42.91
766.726	43.03
767.037	43.13
767.349	43.56
767.66	43.97
767.972	44.31
768.283	44.68
768.594	45.03
768.905	45.14
769.216	45.39
769.527	45.72
769.838	46.13
770.149	46.46
770.46	46.64
770.771	46.96
771.082	47.13
771.393	47.15
771.703	47.46
772.014	47.86
772.324	47.87
772.635	47.72
772.945	47.53
773.256	47.59
773.566	47.74
773.877	47.83
774.187	47.89
774.497	47.86
774.807	47.67
775.117	47.6
775.427	47.95
775.737	47.98
776.047	47.95
776.357	47.97
776.667	48.04
776.977	47.8
777.287	47.78
777.596	48
777.906	47.99
778.216	47.91
778.525	48.18
778.835	48.24
779.144	48.34
779.453	48.49
779.763	48.65
780.072	48.68
780.381	48.55
780.69	48.41
781	48.65
781.309	48.69
781.618	48.91
781.927	48.99
782.235	48.96
782.544	49.04
782.853	49
783.162	48.83
783.471	49.28
783.779	49.29
784.088	49.37
784.396	49.58
784.705	49.63
785.013	49.22
785.322	49.15
785.63	49.21
785.938	49.25
786.246	49.19
786.554	49.14
786.863	49.15
787.171	49.21
787.479	49.4
787.787	49.45
788.094	49.67
788.402	49.78
788.71	49.93
789.018	49.81
789.326	49.77
789.633	50.03
789.941	49.85
790.248	50.1
790.556	50.05
790.863	50.16
791.171	50.06
791.478	50.4
791.785	50.64
792.092	50.94
792.399	50.99
792.707	51.08
793.014	51.42
793.321	51.41
793.628	51.31
793.934	51.38
794.241	51.5
794.548	51.25
794.855	51.09
795.161	51.06
795.468	51.08
795.775	51.2
796.081	51.05
796.388	51.34
796.694	51.14
797	51.34
797.307	51.3
797.613	51.61
797.919	51.58
798.225	51.67
798.531	51.41
798.837	51.64
799.143	51.7
799.449	51.68
799.755	52.01
800.061	52.49
800.367	52.39
800.672	52.65
800.978	52.72
801.284	53.15
801.589	53.01
801.895	53.26
802.2	53.25
802.506	53.37
802.811	53.32
803.116	53.24
803.421	52.94
803.727	52.82
804.032	52.85
804.337	52.89
804.642	53.07
804.947	53.27
805.252	53.25
805.556	53.53
805.861	54.01
806.166	54.13
806.471	53.97
806.775	54.18
807.08	54.2
807.384	54.31
807.689	53.92
807.993	54.13
808.298	54.33
808.602	54.51
808.906	54.97
809.211	55.15
809.515	55.57
809.819	55.82
810.123	55.97
810.427	56.1
810.731	56.34
811.035	56.12
811.338	56.08
811.642	56.26
811.946	56.18
812.25	56.12
812.553	56.2
812.857	56.36
813.16	56.3
813.464	56.38
813.767	56.79
814.07	56.83
814.374	56.82
814.677	56.41
814.98	56.42
815.283	56.06
815.586	55.96
815.889	55.64
816.192	55.54
816.495	55.41
816.798	54.81
817.101	54.18
817.404	53.91
817.706	53.58
818.009	53.18
818.312	52.66
818.614	51.78
818.917	50.64
819.219	49.42
819.521	48.01
819.824	46.77
820.126	45.71
820.428	44.92
820.73	44.27
821.032	43.97
821.334	43.67
821.636	43.51
821.938	43.39
822.24	43.36
822.542	43.27
822.844	43.25
823.145	43.34
823.447	43.34
823.749	43.21
824.05	43.03
824.352	42.89
824.653	42.85
824.955	42.9
825.256	42.81
825.557	42.81
825.858	42.9
826.16	43.08
826.461	43.4
826.762	43.86
827.063	44.26
827.364	44.69
827.665	45.1
827.965	45.38
828.266	45.62
828.567	45.86
828.868	46.16
829.168	46.51
829.469	46.75
829.769	46.99
830.07	47.18
830.37	47.73
830.67	48.27
830.971	48.7
831.271	48.66
831.571	49.03
831.871	49.24
832.171	49.65
832.471	49.71
832.771	49.77
833.071	49.86
833.371	50.29
833.671	50.24
833.971	50.24
834.27	50.32
834.57	50.43
834.869	50.26
835.169	50.33
835.468	50.09
835.768	50
836.067	50.14
836.367	50.77
836.666	50.92
836.965	50.92
837.264	51.25
837.563	51.76
837.862	52.66
838.161	53.52
838.46	54.06
838.759	54.92
839.058	55.69
839.356	56.1
839.655	56.48
839.954	56.73
840.252	56.75
840.551	57.33
840.849	57.77
841.148	58.12
841.446	57.81
841.744	58.1
842.043	58.29
842.341	58.47
842.639	58.37
842.937	58.62
843.235	59.06
843.533	59.39
843.831	60.22
844.129	61.05
844.427	61.7
844.724	62.56
845.022	63.23
845.32	63.59
845.617	63.67
845.915	63.36
846.212	63.5
846.51	64.83
846.807	64.65
847.104	64.25
847.402	65.21
847.699	66.59
847.996	67.16
848.293	67.7
848.59	66.79
848.887	67.27
849.184	67.48
849.481	67.75
849.778	66.76
850.074	66.42
850.371	66.31
850.668	65.83
850.964	66.18
851.261	65.8
851.557	65.84
851.854	66.34
852.15	67.43
852.446	68.33
852.743	67.62
853.039	68.43
853.335	69.14
853.631	69.58
853.927	69.99
854.223	69.91
854.519	69.42
854.815	70.5
855.111	69.48
855.406	69.3
855.702	70.46
855.998	71.63
856.293	72.44
856.589	72.86
856.884	74.25
857.18	73.38
857.475	73.63
857.77	73.1
858.066	73.05
858.361	73.95
858.656	73.9
858.951	74.67
859.246	74.26
859.541	74.5
859.836	73.42
860.131	72.2
860.426	72.52
860.72	73.05
861.015	73.07
861.31	73.06
861.604	73.58
861.899	72.63
862.193	72
862.487	71.43
862.782	70.96
863.076	70.23
863.37	70.28
863.664	70.61
863.959	71.09
864.253	71.16
864.547	70.24
864.841	69.95
865.135	69.8
865.428	69.78
865.722	70.24
866.016	71.1
866.31	71.54
866.603	71.76
866.897	71.24
867.19	70.99
867.484	71.66
867.777	72.3
868.07	72.51
868.364	73.47
868.657	73.7
868.95	73.25
869.243	72.96
869.536	72.4
869.829	72.39
870.122	72.2
870.415	71.79
870.708	71.19
871	70.98
871.293	70.47
871.586	70.07
871.878	68.74
872.171	68
872.463	68.15
872.756	67.37
873.048	66.93
873.341	66.9
873.633	66.67
873.925	65.55
874.217	65.08
874.509	64.03
874.801	63.52
875.093	63.53
875.385	63.27
875.677	63.69
875.969	62.9
