Data from pcis_p_h3_p3_Reflection_1.txt Node
Date: Wed Jul 12 17:53:12 ART 2017
User: rodoncho
Spectrometer: USB2E3644
Trigger mode: 4
Integration Time (sec): 6.000000E-2
Scans to average: 10
Electric dark correction enabled: true
Nonlinearity correction enabled: false
Boxcar width: 10
XAxis mode: Wavelengths
Number of Pixels in Spectrum: 2048
>>>>>Begin Spectral Data<<<<<
178.315	-13.8
178.696	-15.28
179.076	-4.49
179.457	34.34
179.838	58.1
180.218	-777.78
180.599	-75.31
180.979	82.35
181.36	46.03
181.74	8.64
182.121	38.74
182.501	142.82
182.881	180.32
183.262	263.96
183.642	-155.86
184.022	-45.38
184.402	-7.38
184.783	39.1
185.163	48.24
185.543	50.25
185.923	59.6
186.303	57.51
186.683	53.87
187.063	62.16
187.443	64.63
187.823	67.25
188.203	70.9
188.583	69.83
188.963	69.55
189.343	68.44
189.723	67.65
190.102	69.24
190.482	76.53
190.862	79.78
191.242	82.43
191.621	81.69
192.001	80.28
192.38	82.42
192.76	82.28
193.14	84.3
193.519	86.63
193.898	87.27
194.278	91.33
194.657	94.64
195.037	95.18
195.416	97.35
195.795	99.24
196.175	101.22
196.554	103.36
196.933	104.85
197.312	106.25
197.692	110.81
198.071	112.09
198.45	109.59
198.829	110.33
199.208	108.81
199.587	108.28
199.966	109.38
200.345	108.92
200.724	108.35
201.103	108.46
201.482	110.47
201.86	110.97
202.239	109.46
202.618	109.59
202.997	110.83
203.375	111.82
203.754	112.12
204.133	111.16
204.511	110.29
204.89	110.29
205.269	110.98
205.647	109.54
206.026	108.9
206.404	109.6
206.782	108.44
207.161	107.92
207.539	108.45
207.918	108.59
208.296	108.54
208.674	109.14
209.052	109.78
209.431	108.7
209.809	107.82
210.187	107.64
210.565	106.76
210.943	105.36
211.321	104.87
211.699	105.31
212.077	106.28
212.455	105.99
212.833	104.32
213.211	103.36
213.589	103.86
213.967	103.46
214.345	103.2
214.722	103.31
215.1	103.96
215.478	104.83
215.855	104.54
216.233	104.11
216.611	104.64
216.988	103.94
217.366	103.56
217.743	103.71
218.121	105.44
218.498	106.49
218.876	106.62
219.253	108.11
219.631	108.81
220.008	109.86
220.385	111.12
220.762	112.28
221.14	112.28
221.517	112.47
221.894	113.45
222.271	114.25
222.648	114.48
223.025	115.36
223.402	115.35
223.78	115.88
224.157	117.21
224.533	117.06
224.91	116.5
225.287	117.17
225.664	117.69
226.041	116.89
226.418	116.83
226.795	115.81
227.171	113.09
227.548	112.53
227.925	112.1
228.301	112.01
228.678	111.38
229.055	112.37
229.431	112.34
229.808	111.67
230.184	110.37
230.561	110.7
230.937	110.44
231.313	110.57
231.69	111.23
232.066	110.13
232.442	109.79
232.819	109.47
233.195	109.77
233.571	110.22
233.947	110.12
234.323	109.01
234.699	110.2
235.075	111.47
235.451	110.31
235.827	109.89
236.203	110.12
236.579	112.03
236.955	113.2
237.331	115.74
237.707	119.14
238.083	123.5
238.459	126.81
238.834	132.23
239.21	137.77
239.586	142.45
239.961	149.13
240.337	154.29
240.713	161.79
241.088	164.11
241.464	168.64
241.839	176
242.215	186.25
242.59	200.88
242.965	235.38
243.341	312.69
243.716	464.16
244.091	813.21
244.467	1772.76
244.842	23694.87
245.217	-2690.56
245.592	-1827.74
245.967	-1633.33
246.343	-1747.62
246.718	-2642.03
247.093	-3217.56
247.468	-2497.76
247.843	-2000.22
248.218	-1422.91
248.593	-869.84
248.967	-612.7
249.342	-554.79
249.717	-549.97
250.092	-577.71
250.467	-639.3
250.841	-878.69
251.216	-3726.34
251.591	1724.48
251.965	782.27
252.34	556.5
252.714	470.1
253.089	399.01
253.463	389.08
253.838	395.49
254.212	417.13
254.587	480.05
254.961	597.42
255.335	957.29
255.71	-28112.12
256.084	-628.23
256.458	-317.43
256.832	-211.93
257.206	-173.93
257.581	-153.41
257.955	-142.39
258.329	-136.08
258.703	-129.11
259.077	-120.96
259.451	-114.9
259.825	-109.91
260.199	-105.91
260.572	-103.73
260.946	-98.28
261.32	-96.56
261.694	-93.06
262.068	-91.34
262.441	-88.88
262.815	-87.27
263.189	-87.09
263.562	-90.93
263.936	-103.71
264.309	-123.5
264.683	-150.1
265.056	-167.06
265.43	-180.68
265.803	-179.56
266.176	-173.06
266.55	-173.31
266.923	-173.24
267.296	-165.91
267.67	-154.84
268.043	-143.13
268.416	-129.56
268.789	-117.46
269.162	-103.74
269.535	-96.92
269.908	-91.91
270.281	-89.82
270.654	-90.19
271.027	-94.49
271.4	-96.42
271.773	-97.13
272.146	-96.27
272.519	-92.65
272.891	-90.13
273.264	-88.2
273.637	-85.79
274.01	-86.06
274.382	-84.84
274.755	-82.85
275.127	-82.57
275.5	-83.22
275.872	-82.3
276.245	-82.55
276.617	-84.69
276.99	-88.75
277.362	-90.63
277.734	-92.28
278.107	-91.3
278.479	-87.8
278.851	-82.43
279.223	-78.86
279.596	-76.21
279.968	-74.95
280.34	-75.28
280.712	-73.07
281.084	-69.11
281.456	-65.31
281.828	-60.64
282.2	-56.5
282.572	-52.84
282.944	-50.33
283.315	-49
283.687	-48.57
284.059	-48.09
284.431	-47.02
284.802	-46.41
285.174	-44.87
285.546	-43.23
285.917	-42.66
286.289	-41.29
286.66	-40.17
287.032	-40.04
287.403	-39.18
287.775	-38.6
288.146	-38.03
288.518	-37.76
288.889	-37.47
289.26	-37.9
289.632	-38.43
290.003	-39.34
290.374	-40.79
290.745	-41.63
291.116	-40.97
291.487	-39.84
291.858	-39.02
292.229	-38.54
292.6	-37.26
292.971	-36.9
293.342	-35.68
293.713	-34.2
294.084	-33.48
294.455	-32.89
294.826	-32.17
295.196	-32.54
295.567	-32.66
295.938	-31.68
296.308	-32.15
296.679	-31.64
297.05	-30.9
297.42	-30.34
297.791	-29.73
298.161	-29.02
298.532	-28.43
298.902	-28.46
299.272	-28.26
299.643	-27.63
300.013	-27.35
300.383	-27.01
300.754	-26.61
301.124	-26.66
301.494	-26.31
301.864	-26.32
302.234	-26.56
302.604	-26.78
302.974	-26.18
303.344	-25.82
303.714	-26.2
304.084	-25.29
304.454	-25.27
304.824	-24.8
305.194	-23.84
305.563	-22.94
305.933	-21.42
306.303	-19.89
306.673	-19.15
307.042	-18.55
307.412	-17.81
307.781	-16.78
308.151	-15.9
308.521	-15.26
308.89	-14.93
309.259	-14.71
309.629	-14.33
309.998	-14.09
310.368	-13.75
310.737	-13.54
311.106	-13.08
311.475	-12.54
311.845	-12.26
312.214	-11.81
312.583	-11.63
312.952	-11.78
313.321	-11.89
313.69	-12.39
314.059	-12.98
314.428	-13.12
314.797	-13.47
315.166	-14.23
315.535	-14.97
315.904	-15.59
316.272	-15.76
316.641	-15.67
317.01	-15.89
317.379	-16.12
317.747	-16.01
318.116	-15.73
318.484	-15.38
318.853	-14.8
319.221	-14.54
319.59	-14.08
319.958	-13.71
320.327	-13.59
320.695	-13.02
321.063	-12.62
321.432	-11.93
321.8	-11.26
322.168	-10.41
322.536	-9.48
322.905	-8.48
323.273	-7.55
323.641	-6.95
324.009	-6.98
324.377	-6.76
324.745	-6.36
325.113	-5.95
325.481	-5.51
325.849	-4.99
326.216	-4.44
326.584	-4.01
326.952	-3.69
327.32	-3.4
327.687	-3.14
328.055	-2.64
328.423	-2.43
328.79	-2.35
329.158	-2.34
329.525	-2.07
329.893	-1.83
330.26	-1.66
330.628	-1.57
330.995	-1.49
331.362	-1.16
331.73	-0.51
332.097	-0.13
332.464	0.1
332.831	0.39
333.199	0.76
333.566	0.82
333.933	0.67
334.3	0.53
334.667	0.67
335.034	0.81
335.401	0.92
335.768	0.87
336.135	1
336.502	1.24
336.868	1.64
337.235	1.84
337.602	2.11
337.969	2.3
338.335	2.56
338.702	2.88
339.069	3.1
339.435	3.26
339.802	3.42
340.168	3.7
340.535	3.93
340.901	3.89
341.267	4.14
341.634	4.58
342	4.94
342.366	5.16
342.733	5.32
343.099	5.57
343.465	5.93
343.831	6.14
344.197	6.35
344.563	6.34
344.929	6.46
345.295	6.55
345.661	6.7
346.027	6.87
346.393	6.93
346.759	6.86
347.125	6.84
347.491	6.9
347.856	6.97
348.222	7.11
348.588	7.33
348.953	7.37
349.319	7.49
349.684	7.53
350.05	7.65
350.415	7.89
350.781	8.03
351.146	8.16
351.512	8.31
351.877	8.47
352.242	8.72
352.608	8.83
352.973	8.9
353.338	9
353.703	9.1
354.068	9.23
354.433	9.43
354.798	9.61
355.164	9.72
355.528	9.91
355.893	9.94
356.258	10.04
356.623	10.26
356.988	10.33
357.353	10.45
357.718	10.6
358.082	10.66
358.447	10.69
358.812	10.74
359.176	10.76
359.541	10.71
359.905	10.78
360.27	10.93
360.634	11.07
360.999	11.15
361.363	11.24
361.728	11.25
362.092	11.29
362.456	11.37
362.821	11.47
363.185	11.42
363.549	11.55
363.913	11.63
364.277	11.54
364.641	11.59
365.005	11.62
365.369	11.63
365.733	11.69
366.097	11.8
366.461	11.82
366.825	11.87
367.189	12.08
367.553	12.17
367.916	12.24
368.28	12.25
368.644	12.4
369.007	12.52
369.371	12.63
369.734	12.72
370.098	12.77
370.461	12.82
370.825	12.92
371.188	13.01
371.552	13.07
371.915	13.22
372.278	13.34
372.642	13.45
373.005	13.55
373.368	13.55
373.731	13.55
374.094	13.66
374.457	13.7
374.82	13.67
375.183	13.61
375.546	13.63
375.909	13.68
376.272	13.58
376.635	13.5
376.998	13.46
377.361	13.51
377.723	13.56
378.086	13.62
378.449	13.7
378.811	13.71
379.174	13.73
379.537	13.71
379.899	13.72
380.262	13.8
380.624	13.81
380.987	13.87
381.349	13.87
381.711	13.87
382.074	13.96
382.436	14.02
382.798	14.09
383.16	14.09
383.522	14.13
383.884	14.26
384.247	14.37
384.609	14.47
384.971	14.48
385.333	14.48
385.695	14.47
386.056	14.46
386.418	14.43
386.78	14.45
387.142	14.49
387.504	14.46
387.865	14.38
388.227	14.32
388.589	14.31
388.95	14.31
389.312	14.27
389.673	14.19
390.035	14.15
390.396	14.09
390.758	14.05
391.119	13.98
391.48	13.93
391.842	13.85
392.203	13.77
392.564	13.69
392.925	13.65
393.286	13.67
393.648	13.61
394.009	13.57
394.37	13.52
394.731	13.47
395.092	13.42
395.452	13.38
395.813	13.36
396.174	13.34
396.535	13.31
396.896	13.29
397.257	13.29
397.617	13.27
397.978	13.26
398.338	13.28
398.699	13.27
399.06	13.2
399.42	13.17
399.781	13.15
400.141	13.09
400.501	13.07
400.862	13
401.222	12.97
401.582	12.96
401.943	12.92
402.303	12.91
402.663	12.87
403.023	12.87
403.383	12.83
403.743	12.79
404.103	12.81
404.463	12.81
404.823	12.79
405.183	12.77
405.543	12.76
405.903	12.73
406.262	12.72
406.622	12.73
406.982	12.72
407.342	12.72
407.701	12.79
408.061	12.76
408.42	12.74
408.78	12.74
409.139	12.71
409.499	12.71
409.858	12.72
410.217	12.73
410.577	12.7
410.936	12.69
411.295	12.67
411.655	12.61
412.014	12.56
412.373	12.53
412.732	12.45
413.091	12.39
413.45	12.33
413.809	12.26
414.168	12.17
414.527	12.07
414.886	11.97
415.245	11.86
415.603	11.77
415.962	11.64
416.321	11.53
416.679	11.42
417.038	11.28
417.397	11.14
417.755	11.03
418.114	10.94
418.472	10.85
418.831	10.76
419.189	10.68
419.547	10.59
419.906	10.5
420.264	10.43
420.622	10.35
420.981	10.29
421.339	10.22
421.697	10.14
422.055	10.09
422.413	10.04
422.771	10
423.129	9.96
423.487	9.95
423.845	9.94
424.203	9.93
424.56	9.92
424.918	9.92
425.276	9.92
425.634	9.94
425.991	9.93
426.349	9.94
426.707	9.94
427.064	9.96
427.422	9.97
427.779	10
428.137	10.06
428.494	10.07
428.851	10.13
429.209	10.21
429.566	10.21
429.923	10.23
430.28	10.23
430.637	10.24
430.995	10.22
431.352	10.23
431.709	10.26
432.066	10.29
432.423	10.32
432.78	10.32
433.137	10.33
433.493	10.35
433.85	10.39
434.207	10.39
434.564	10.42
434.92	10.45
435.277	10.45
435.634	10.43
435.99	10.43
436.347	10.43
436.703	10.39
437.06	10.42
437.416	10.44
437.773	10.46
438.129	10.46
438.485	10.48
438.841	10.46
439.198	10.45
439.554	10.44
439.91	10.43
440.266	10.43
440.622	10.4
440.978	10.37
441.334	10.34
441.69	10.29
442.046	10.23
442.402	10.15
442.758	10.08
443.113	10.02
443.469	9.95
443.825	9.88
444.181	9.84
444.536	9.79
444.892	9.72
445.247	9.67
445.603	9.64
445.958	9.6
446.314	9.58
446.669	9.54
447.025	9.48
447.38	9.43
447.735	9.37
448.09	9.34
448.446	9.3
448.801	9.24
449.156	9.21
449.511	9.17
449.866	9.16
450.221	9.17
450.576	9.16
450.931	9.16
451.286	9.13
451.641	9.14
451.995	9.12
452.35	9.14
452.705	9.14
453.06	9.12
453.414	9.13
453.769	9.13
454.123	9.14
454.478	9.16
454.832	9.16
455.187	9.17
455.541	9.18
455.896	9.18
456.25	9.21
456.604	9.22
456.958	9.24
457.313	9.25
457.667	9.28
458.021	9.31
458.375	9.34
458.729	9.42
459.083	9.46
459.437	9.52
459.791	9.58
460.145	9.63
460.499	9.71
460.852	9.75
461.206	9.82
461.56	9.89
461.914	9.97
462.267	10.06
462.621	10.17
462.974	10.29
463.328	10.45
463.681	10.6
464.035	10.78
464.388	10.94
464.742	11.08
465.095	11.22
465.448	11.35
465.801	11.48
466.155	11.59
466.508	11.69
466.861	11.79
467.214	11.88
467.567	11.99
467.92	12.06
468.273	12.15
468.626	12.21
468.979	12.28
469.332	12.34
469.684	12.4
470.037	12.47
470.39	12.49
470.743	12.53
471.095	12.58
471.448	12.62
471.8	12.64
472.153	12.69
472.505	12.69
472.858	12.69
473.21	12.65
473.562	12.61
473.915	12.57
474.267	12.49
474.619	12.41
474.971	12.31
475.324	12.24
475.676	12.15
476.028	12.06
476.38	11.95
476.732	11.84
477.084	11.74
477.436	11.62
477.787	11.51
478.139	11.39
478.491	11.26
478.843	11.1
479.195	10.95
479.546	10.72
479.898	10.47
480.249	10.25
480.601	10.08
480.952	9.95
481.304	9.84
481.655	9.78
482.007	9.73
482.358	9.69
482.709	9.63
483.061	9.6
483.412	9.57
483.763	9.54
484.114	9.52
484.465	9.5
484.816	9.49
485.167	9.49
485.518	9.48
485.869	9.49
486.22	9.52
486.571	9.55
486.922	9.6
487.272	9.67
487.623	9.76
487.974	9.89
488.324	10
488.675	10.12
489.025	10.22
489.376	10.33
489.726	10.43
490.077	10.55
490.427	10.67
490.778	10.8
491.128	10.97
491.478	11.15
491.828	11.36
492.179	11.58
492.529	11.8
492.879	12.03
493.229	12.26
493.579	12.47
493.929	12.66
494.279	12.88
494.629	13.13
494.979	13.42
495.328	13.75
495.678	14.14
496.028	14.52
496.378	14.9
496.727	15.24
497.077	15.57
497.426	15.9
497.776	16.19
498.125	16.47
498.475	16.75
498.824	17.03
499.174	17.27
499.523	17.55
499.872	17.84
500.221	18.13
500.571	18.41
500.92	18.73
501.269	19.05
501.618	19.34
501.967	19.65
502.316	19.93
502.665	20.2
503.014	20.47
503.363	20.74
503.711	20.95
504.06	21.17
504.409	21.38
504.758	21.58
505.106	21.74
505.455	21.92
505.803	22.08
506.152	22.23
506.5	22.4
506.849	22.54
507.197	22.67
507.546	22.81
507.894	22.95
508.242	23.07
508.59	23.17
508.939	23.27
509.287	23.37
509.635	23.45
509.983	23.52
510.331	23.61
510.679	23.69
511.027	23.77
511.375	23.86
511.723	23.93
512.07	24
512.418	24.09
512.766	24.18
513.114	24.25
513.461	24.31
513.809	24.35
514.156	24.4
514.504	24.47
514.851	24.51
515.199	24.56
515.546	24.61
515.893	24.65
516.241	24.71
516.588	24.75
516.935	24.82
517.282	24.88
517.63	24.91
517.977	24.94
518.324	24.98
518.671	25.03
519.018	25.08
519.365	25.13
519.711	25.17
520.058	25.19
520.405	25.23
520.752	25.28
521.099	25.36
521.445	25.41
521.792	25.43
522.138	25.51
522.485	25.55
522.832	25.6
523.178	25.66
523.524	25.72
523.871	25.75
524.217	25.76
524.563	25.77
524.91	25.77
525.256	25.78
525.602	25.82
525.948	25.83
526.294	25.83
526.64	25.83
526.986	25.86
527.332	25.88
527.678	25.89
528.024	25.9
528.37	25.9
528.716	25.91
529.061	25.93
529.407	25.93
529.753	25.94
530.098	25.94
530.444	25.94
530.789	25.94
531.135	25.95
531.48	25.97
531.826	26
532.171	26.03
532.516	26.07
532.862	26.08
533.207	26.1
533.552	26.13
533.897	26.15
534.242	26.15
534.587	26.16
534.932	26.18
535.277	26.19
535.622	26.2
535.967	26.22
536.312	26.24
536.657	26.27
537.001	26.28
537.346	26.31
537.691	26.32
538.035	26.31
538.38	26.28
538.724	26.26
539.069	26.22
539.413	26.22
539.758	26.22
540.102	26.21
540.446	26.21
540.791	26.21
541.135	26.21
541.479	26.22
541.823	26.23
542.167	26.21
542.512	26.22
542.856	26.2
543.2	26.18
543.543	26.17
543.887	26.15
544.231	26.17
544.575	26.16
544.919	26.17
545.262	26.18
545.606	26.21
545.95	26.25
546.293	26.28
546.637	26.29
546.98	26.27
547.324	26.27
547.667	26.27
548.011	26.25
548.354	26.22
548.697	26.21
549.04	26.2
549.384	26.21
549.727	26.17
550.07	26.17
550.413	26.15
550.756	26.14
551.099	26.13
551.442	26.1
551.785	26.09
552.128	26.04
552.47	26.02
552.813	25.99
553.156	25.95
553.499	25.94
553.841	25.9
554.184	25.9
554.526	25.88
554.869	25.84
555.211	25.8
555.554	25.78
555.896	25.7
556.238	25.65
556.581	25.58
556.923	25.56
557.265	25.52
557.607	25.48
557.949	25.44
558.291	25.4
558.633	25.35
558.975	25.3
559.317	25.29
559.659	25.23
560.001	25.17
560.343	25.11
560.685	25.06
561.026	25
561.368	24.96
561.71	24.88
562.051	24.85
562.393	24.83
562.734	24.78
563.076	24.76
563.417	24.72
563.759	24.7
564.1	24.64
564.441	24.6
564.782	24.53
565.124	24.49
565.465	24.45
565.806	24.4
566.147	24.37
566.488	24.29
566.829	24.27
567.17	24.23
567.511	24.2
567.851	24.14
568.192	24.08
568.533	24.01
568.874	23.98
569.214	23.9
569.555	23.85
569.895	23.78
570.236	23.73
570.576	23.67
570.917	23.59
571.257	23.53
571.598	23.46
571.938	23.45
572.278	23.41
572.618	23.38
572.959	23.34
573.299	23.29
573.639	23.26
573.979	23.18
574.319	23.12
574.659	23.04
574.999	22.97
575.339	22.91
575.678	22.84
576.018	22.78
576.358	22.73
576.698	22.63
577.037	22.56
577.377	22.53
577.716	22.45
578.056	22.43
578.395	22.38
578.735	22.31
579.074	22.24
579.413	22.12
579.753	22.05
580.092	21.98
580.431	21.92
580.77	21.85
581.109	21.81
581.448	21.74
581.787	21.71
582.126	21.65
582.465	21.6
582.804	21.57
583.143	21.47
583.482	21.39
583.82	21.35
584.159	21.31
584.498	21.2
584.836	21.18
585.175	21.13
585.514	21.06
585.852	21.02
586.19	20.94
586.529	20.89
586.867	20.83
587.205	20.79
587.544	20.73
587.882	20.69
588.22	20.62
588.558	20.58
588.896	20.48
589.234	20.44
589.572	20.41
589.91	20.32
590.248	20.32
590.586	20.3
590.924	20.24
591.262	20.2
591.599	20.14
591.937	20.07
592.275	20
592.612	19.91
592.95	19.85
593.287	19.82
593.625	19.8
593.962	19.7
594.299	19.62
594.637	19.56
594.974	19.51
595.311	19.45
595.648	19.43
595.985	19.39
596.322	19.33
596.659	19.28
596.996	19.24
597.333	19.17
597.67	19.11
598.007	19.05
598.344	18.98
598.681	18.92
599.017	18.84
599.354	18.76
599.691	18.72
600.027	18.64
600.364	18.56
600.7	18.47
601.037	18.41
601.373	18.33
601.71	18.27
602.046	18.2
602.382	18.15
602.718	18.09
603.054	18.04
603.391	17.99
603.727	17.92
604.063	17.88
604.399	17.83
604.735	17.77
605.071	17.73
605.406	17.71
605.742	17.68
606.078	17.67
606.414	17.64
606.749	17.62
607.085	17.56
607.421	17.49
607.756	17.41
608.092	17.34
608.427	17.31
608.762	17.22
609.098	17.12
609.433	17.06
609.768	16.99
610.104	16.94
610.439	16.9
610.774	16.88
611.109	16.8
611.444	16.74
611.779	16.69
612.114	16.61
612.449	16.5
612.784	16.47
613.118	16.37
613.453	16.28
613.788	16.13
614.123	16.07
614.457	15.99
614.792	15.95
615.126	15.84
615.461	15.71
615.795	15.62
616.13	15.55
616.464	15.48
616.798	15.41
617.132	15.35
617.467	15.31
617.801	15.21
618.135	15.18
618.469	15.12
618.803	15.03
619.137	14.99
619.471	14.93
619.805	14.83
620.139	14.73
620.472	14.64
620.806	14.61
621.14	14.55
621.473	14.49
621.807	14.41
622.141	14.4
622.474	14.37
622.808	14.33
623.141	14.33
623.474	14.27
623.808	14.25
624.141	14.2
624.474	14.17
624.807	14.16
625.141	14.13
625.474	14.09
625.807	14.08
626.14	14.05
626.473	14.02
626.806	14
627.138	14.03
627.471	14
627.804	14
628.137	13.94
628.469	13.89
628.802	13.83
629.135	13.8
629.467	13.76
629.8	13.71
630.132	13.67
630.465	13.64
630.797	13.61
631.129	13.57
631.461	13.5
631.794	13.46
632.126	13.39
632.458	13.36
632.79	13.34
633.122	13.3
633.454	13.28
633.786	13.3
634.118	13.21
634.45	13.21
634.781	13.16
635.113	13.12
635.445	13.08
635.777	13.06
636.108	13.04
636.44	13.03
636.771	13
637.103	12.9
637.434	12.86
637.765	12.77
638.097	12.71
638.428	12.63
638.759	12.56
639.09	12.5
639.422	12.44
639.753	12.39
640.084	12.38
640.415	12.35
640.746	12.23
641.077	12.18
641.407	12.12
641.738	12.08
642.069	12.08
642.4	12.04
642.73	12.04
643.061	11.97
643.392	11.94
643.722	11.96
644.053	11.94
644.383	11.91
644.713	11.87
645.044	11.84
645.374	11.79
645.704	11.78
646.034	11.8
646.365	11.83
646.695	11.82
647.025	11.76
647.355	11.71
647.685	11.65
648.015	11.67
648.344	11.66
648.674	11.66
649.004	11.65
649.334	11.65
649.663	11.63
649.993	11.63
650.323	11.6
650.652	11.55
650.982	11.53
651.311	11.53
651.64	11.49
651.97	11.44
652.299	11.48
652.628	11.46
652.958	11.43
653.287	11.38
653.616	11.34
653.945	11.37
654.274	11.35
654.603	11.33
654.932	11.26
655.261	11.23
655.589	11.23
655.918	11.25
656.247	11.26
656.576	11.26
656.904	11.29
657.233	11.33
657.561	11.32
657.89	11.38
658.218	11.36
658.547	11.38
658.875	11.42
659.203	11.38
659.532	11.37
659.86	11.35
660.188	11.34
660.516	11.3
660.844	11.21
661.172	11.18
661.5	11.16
661.828	11.13
662.156	11.07
662.484	11
662.811	10.88
663.139	10.81
663.467	10.77
663.794	10.67
664.122	10.54
664.45	10.49
664.777	10.41
665.104	10.38
665.432	10.3
665.759	10.22
666.086	10.14
666.414	10.13
666.741	10.12
667.068	10.14
667.395	10.13
667.722	10.14
668.049	10.13
668.376	10.13
668.703	10.13
669.03	10.17
669.357	10.15
669.683	10.21
670.01	10.22
670.337	10.21
670.663	10.18
670.99	10.18
671.317	10.14
671.643	10.15
671.969	10.13
672.296	10.15
672.622	10.11
672.948	10.14
673.275	10.07
673.601	10.04
673.927	9.94
674.253	9.93
674.579	9.94
674.905	9.98
675.231	9.95
675.557	10
675.883	10
676.209	10.02
676.534	10
676.86	9.99
677.186	9.99
677.511	10.05
677.837	10.08
678.162	10.1
678.488	10.11
678.813	10.14
679.139	10.15
679.464	10.19
679.789	10.18
680.114	10.19
680.44	10.19
680.765	10.19
681.09	10.15
681.415	10.15
681.74	10.06
682.065	10.07
682.39	10
682.714	9.93
683.039	9.91
683.364	9.89
683.689	9.85
684.013	9.81
684.338	9.72
684.662	9.71
684.987	9.72
685.311	9.65
685.636	9.6
685.96	9.52
686.284	9.46
686.608	9.49
686.933	9.47
687.257	9.42
687.581	9.43
687.905	9.49
688.229	9.48
688.553	9.52
688.877	9.5
689.201	9.5
689.524	9.52
689.848	9.55
690.172	9.5
690.496	9.5
690.819	9.49
691.143	9.5
691.466	9.48
691.79	9.41
692.113	9.3
692.436	9.2
692.76	9.17
693.083	9.19
693.406	9.15
693.729	9.11
694.053	9.12
694.376	9.1
694.699	9.12
695.022	9.18
695.344	9.26
695.667	9.41
695.99	9.53
696.313	9.67
696.636	9.79
696.958	9.81
697.281	9.83
697.604	9.86
697.926	9.87
698.249	9.83
698.571	9.88
698.893	9.91
699.216	9.92
699.538	9.95
699.86	9.93
700.182	9.86
700.504	9.85
700.827	9.86
701.149	9.83
701.471	9.74
701.793	9.63
702.114	9.47
702.436	9.26
702.758	9.04
703.08	8.8
703.401	8.52
703.723	8.29
704.045	8.16
704.366	7.99
704.688	7.94
705.009	7.86
705.331	7.83
705.652	7.84
705.973	7.85
706.294	7.86
706.616	7.93
706.937	7.98
707.258	7.99
707.579	8.07
707.9	8.11
708.221	8.23
708.542	8.31
708.863	8.4
709.183	8.43
709.504	8.48
709.825	8.55
710.145	8.62
710.466	8.79
710.787	8.85
711.107	8.88
711.427	8.83
711.748	8.82
712.068	8.81
712.388	8.87
712.709	8.91
713.029	8.92
713.349	8.95
713.669	8.98
713.989	9.08
714.309	9.04
714.629	9.03
714.949	8.94
715.269	8.85
715.589	8.8
715.908	8.82
716.228	8.87
716.548	8.84
716.867	8.81
717.187	8.79
717.506	8.76
717.826	8.81
718.145	8.91
718.465	9
718.784	9.08
719.103	9.09
719.422	9.14
719.741	9.19
720.061	9.21
720.38	9.36
720.699	9.38
721.018	9.43
721.336	9.42
721.655	9.55
721.974	9.75
722.293	9.94
722.612	10.02
722.93	10.17
723.249	10.35
723.567	10.47
723.886	10.66
724.204	10.82
724.523	10.93
724.841	11.08
725.159	11.2
725.477	11.32
725.796	11.49
726.114	11.68
726.432	11.83
726.75	12.02
727.068	12.03
727.386	12.07
727.704	12.22
728.022	12.51
728.339	12.65
728.657	12.71
728.975	12.73
729.292	12.88
729.61	12.9
729.928	12.97
730.245	13.11
730.562	13.17
730.88	13.28
731.197	13.47
731.514	13.6
731.832	13.76
732.149	13.93
732.466	13.96
732.783	14.04
733.1	14.22
733.417	14.25
733.734	14.37
734.051	14.54
734.368	14.68
734.684	14.69
735.001	14.73
735.318	14.87
735.634	15.05
735.951	15.25
736.268	15.46
736.584	15.64
736.9	15.7
737.217	15.74
737.533	15.81
737.849	15.93
738.166	16.01
738.482	16.03
738.798	16.08
739.114	16.19
739.43	16.25
739.746	16.24
740.062	16.38
740.378	16.6
740.693	16.76
741.009	16.85
741.325	17.03
741.641	17.18
741.956	17.37
742.272	17.52
742.587	17.51
742.903	17.62
743.218	17.72
743.533	17.92
743.849	18.18
744.164	18.31
744.479	18.41
744.794	18.52
745.109	18.8
745.424	18.87
745.739	18.95
746.054	19.02
746.369	19
746.684	19.03
746.999	18.91
747.313	18.97
747.628	19.1
747.943	19.11
748.257	19.26
748.572	19.21
748.886	19.32
749.201	19.45
749.515	19.51
749.829	19.59
750.144	19.71
750.458	19.84
750.772	19.89
751.086	19.91
751.4	19.97
751.714	19.85
752.028	19.97
752.342	20.07
752.656	20.21
752.97	20.26
753.284	20.42
753.597	20.51
753.911	20.64
754.225	20.67
754.538	20.81
754.852	20.98
755.165	21.19
755.478	21.19
755.792	21.1
756.105	21.1
756.418	21.16
756.731	21.14
757.045	21.2
757.358	21.3
757.671	21.39
757.984	21.47
758.297	21.65
758.609	21.79
758.922	21.91
759.235	21.86
759.548	21.97
759.86	21.78
760.173	21.68
760.486	21.33
760.798	21.21
761.111	21.1
761.423	20.85
761.735	20.72
762.048	20.69
762.36	20.75
762.672	20.86
762.984	20.93
763.296	20.94
763.608	20.97
763.92	21
764.232	21.09
764.544	21.17
764.856	21.2
765.168	21.27
765.48	21.36
765.791	21.58
766.103	21.82
766.414	22.04
766.726	22.37
767.037	22.76
767.349	23.08
767.66	23.42
767.972	23.84
768.283	24.34
768.594	24.8
768.905	25.17
769.216	25.42
769.527	25.85
769.838	26.12
770.149	26.25
770.46	26.65
770.771	26.83
771.082	27.09
771.393	27.25
771.703	27.24
772.014	27.39
772.324	27.58
772.635	27.76
772.945	27.96
773.256	28.22
773.566	28.41
773.877	28.6
774.187	28.76
774.497	28.86
774.807	28.85
775.117	28.88
775.427	29
775.737	28.93
776.047	28.74
776.357	28.89
776.667	29.13
776.977	29.27
777.287	29.37
777.596	29.45
777.906	29.69
778.216	29.94
778.525	29.97
778.835	29.86
779.144	29.93
779.453	30.01
779.763	30.15
780.072	30.44
780.381	30.42
780.69	30.49
781	30.72
781.309	30.8
781.618	31
781.927	31.42
782.235	31.66
782.544	31.99
782.853	32.41
783.162	32.41
783.471	32.3
783.779	32.27
784.088	32.38
784.396	32.34
784.705	32.19
785.013	32.29
785.322	32.5
785.63	32.3
785.938	32.37
786.246	32.29
786.554	32.36
786.863	32.56
787.171	32.52
787.479	32.49
787.787	32.62
788.094	32.49
788.402	32.22
788.71	32.08
789.018	31.94
789.326	31.83
789.633	31.95
789.941	32.3
790.248	32.52
790.556	32.71
790.863	33
791.171	33.17
791.478	33.28
791.785	33.36
792.092	33.57
792.399	33.59
792.707	33.66
793.014	33.7
793.321	33.68
793.628	33.79
793.934	33.77
794.241	33.62
794.548	33.68
794.855	33.85
795.161	34.03
795.468	34
795.775	33.79
796.081	33.93
796.388	34
796.694	33.87
797	33.79
797.307	33.85
797.613	34.03
797.919	34.12
798.225	34.11
798.531	34.22
798.837	34.31
799.143	34.44
799.449	34.52
799.755	34.72
800.061	35.12
800.367	35.32
800.672	35.73
800.978	35.97
801.284	36.03
801.589	36.48
801.895	36.94
802.2	37.52
802.506	37.59
802.811	37.39
803.116	37.61
803.421	37.55
803.727	37.38
804.032	37.45
804.337	37.77
804.642	38.04
804.947	38.21
805.252	38.38
805.556	38.49
805.861	38.46
806.166	38.66
806.471	38.66
806.775	38.77
807.08	38.8
807.384	38.82
807.689	38.88
807.993	38.64
808.298	38.54
808.602	38.43
808.906	38.43
809.211	38.2
809.515	38.23
809.819	38.28
810.123	38.64
810.427	38.72
810.731	38.34
811.035	38.26
811.338	38.41
811.642	38.72
811.946	38.88
812.25	39.01
812.553	38.67
812.857	38.86
813.16	39.23
813.464	39.54
813.767	39.86
814.07	39.7
814.374	39.59
814.677	39.23
814.98	39.32
815.283	39.28
815.586	39.82
815.889	39.95
816.192	39.82
816.495	39.74
816.798	39.41
817.101	39.47
817.404	39.19
817.706	38.52
818.009	37.76
818.312	36.73
818.614	35.62
818.917	34.05
819.219	31.71
819.521	29.5
819.824	27.61
820.126	26.07
820.428	25.08
820.73	24.31
821.032	23.81
821.334	23.31
821.636	23.04
821.938	22.88
822.24	22.66
822.542	22.6
822.844	22.45
823.145	22.38
823.447	22.18
823.749	22.05
824.05	21.86
824.352	21.74
824.653	21.71
824.955	21.68
825.256	21.71
825.557	21.89
825.858	22.08
826.16	22.39
826.461	22.86
826.762	23.45
827.063	24.02
827.364	24.5
827.665	25.13
827.965	25.57
828.266	25.92
828.567	26.41
828.868	26.81
829.168	27.21
829.469	27.57
829.769	28.15
830.07	28.51
830.37	29.05
830.67	29.69
830.971	30.11
831.271	30.66
831.571	30.96
831.871	31.25
832.171	31.69
832.471	31.82
832.771	31.99
833.071	32.08
833.371	32.43
833.671	32.56
833.971	32.83
834.27	33.06
834.57	33.04
834.869	32.69
835.169	32.75
835.468	32.61
835.768	32.53
836.067	32.6
836.367	32.91
836.666	33.55
836.965	33.95
837.264	34.69
837.563	35.6
837.862	36.67
838.161	37.76
838.46	38.42
838.759	39.33
839.058	40.11
839.356	40.89
839.655	41.69
839.954	42.49
840.252	42.71
840.551	43.12
840.849	43.59
841.148	45.08
841.446	45.42
841.744	46
842.043	46.74
842.341	47.05
842.639	47.57
842.937	47.71
843.235	48.51
843.533	49.64
843.831	50.47
844.129	51.48
844.427	52.36
844.724	54.07
845.022	55.39
845.32	57.06
845.617	58.24
845.915	59.45
846.212	60.73
846.51	61.11
846.807	61.99
847.104	62.91
847.402	63.31
847.699	64.12
847.996	64.74
848.293	63.7
848.59	64.06
848.887	63.89
849.184	64.36
849.481	64.07
849.778	63.92
850.074	63.29
850.371	63.31
850.668	62.89
850.964	63.06
851.261	64
851.557	64.2
851.854	64.54
852.15	63.64
852.446	64.79
852.743	66.24
853.039	65.62
853.335	66.12
853.631	65.78
853.927	65.26
854.223	64.83
854.519	66.41
854.815	66.72
855.111	66
855.406	65.92
855.702	66.63
855.998	66.51
856.293	67.03
856.589	67.14
856.884	67.85
857.18	67.83
857.475	66.84
857.77	66.18
858.066	66.02
858.361	66.48
858.656	65.24
858.951	64.09
859.246	64.13
859.541	63.46
859.836	63.11
860.131	62.31
860.426	63.02
860.72	61.79
861.015	61.9
861.31	62.43
861.604	62.38
861.899	62.09
862.193	61.66
862.487	61
862.782	61.11
863.076	60.88
863.37	60.76
863.664	61.69
863.959	61.97
864.253	61.12
864.547	61.08
864.841	60.98
865.135	60.89
865.428	60.36
865.722	60.12
866.016	60.17
866.31	61.43
866.603	60.33
866.897	60.03
867.19	59.16
867.484	59.74
867.777	59.7
868.07	59.35
868.364	59.62
868.657	60.48
868.95	60.48
869.243	59.94
869.536	59.64
869.829	58.75
870.122	57.93
870.415	58.98
870.708	58.19
871	57.51
871.293	57.43
871.586	58.66
871.878	59.34
872.171	60.11
872.463	59.87
872.756	60.31
873.048	61.88
873.341	62.21
873.633	61.93
873.925	61.59
874.217	61.55
874.509	61.4
874.801	60.57
875.093	60.14
875.385	61.22
875.677	61.32
875.969	61.02
