Data from pcis_c_h2_p3_Reflection_3.txt Node
Date: Wed Jul 12 17:41:10 ART 2017
User: rodoncho
Spectrometer: USB2E3644
Trigger mode: 4
Integration Time (sec): 6.000000E-2
Scans to average: 10
Electric dark correction enabled: true
Nonlinearity correction enabled: false
Boxcar width: 10
XAxis mode: Wavelengths
Number of Pixels in Spectrum: 2048
>>>>>Begin Spectral Data<<<<<
178.315	-95.97
178.696	41.3
179.076	134.86
179.457	140.65
179.838	235.94
180.218	1090
180.599	14.66
180.979	-30
181.36	-1.02
181.74	-102.82
182.121	681.25
182.501	74.07
182.881	63.07
183.262	41.5
183.642	343.75
184.022	116.84
184.402	104.05
184.783	102.39
185.163	108.85
185.543	130.82
185.923	147.35
186.303	148.66
186.683	159.3
187.063	161.42
187.443	155.71
187.823	160.13
188.203	158.61
188.583	158.44
188.963	154.87
189.343	154.68
189.723	152.24
190.102	153.99
190.482	144.18
190.862	142.19
191.242	141.43
191.621	144.28
192.001	144.87
192.38	144.75
192.76	143.81
193.14	143.61
193.519	137.45
193.898	134.28
194.278	128.76
194.657	123.59
195.037	122.01
195.416	121.45
195.795	118.03
196.175	115.71
196.554	113.98
196.933	111.14
197.312	109.58
197.692	107.87
198.071	106.29
198.45	109.15
198.829	110.02
199.208	110.1
199.587	108.64
199.966	108.99
200.345	110.23
200.724	109.8
201.103	109.52
201.482	111.02
201.86	111.9
202.239	113.64
202.618	114.14
202.997	112.02
203.375	109.69
203.754	110.18
204.133	111.46
204.511	111.23
204.89	111.39
205.269	111.12
205.647	111.9
206.026	112.49
206.404	111.19
206.782	110.71
207.161	112.32
207.539	112.36
207.918	111.73
208.296	112.64
208.674	112.82
209.052	111.79
209.431	110.03
209.809	109.42
210.187	109.39
210.565	109.76
210.943	111.89
211.321	113.03
211.699	113.9
212.077	114.24
212.455	115.5
212.833	117.04
213.211	116.19
213.589	115.61
213.967	114.93
214.345	113.86
214.722	113.17
215.1	112.75
215.478	113.53
215.855	114.13
216.233	113.01
216.611	113.16
216.988	114.05
217.366	114.81
217.743	115.32
218.121	114.36
218.498	114.84
218.876	114.37
219.253	115.66
219.631	115.77
220.008	114.49
220.385	114.11
220.762	113.75
221.14	115.07
221.517	113.85
221.894	113.86
222.271	114.62
222.648	115.57
223.025	115.47
223.402	114.32
223.78	113.72
224.157	114.85
224.533	114.34
224.91	114.58
225.287	114.8
225.664	114.41
226.041	116.36
226.418	115.53
226.795	115.68
227.171	115.08
227.548	115.89
227.925	117.84
228.301	117.43
228.678	117.48
229.055	117.97
229.431	120.88
229.808	123.42
230.184	126.35
230.561	126.82
230.937	126.5
231.313	127.72
231.69	129.04
232.066	128.93
232.442	130.3
232.819	129
233.195	129.43
233.571	132.11
233.947	133.3
234.323	133.1
234.699	132.23
235.075	131.78
235.451	130.68
235.827	130.19
236.203	131.51
236.579	132.85
236.955	133.71
237.331	134.84
237.707	135.27
238.083	137.1
238.459	141.38
238.834	145.9
239.21	150.15
239.586	153.99
239.961	157.27
240.337	159.32
240.713	165.29
241.088	168.05
241.464	169.28
241.839	174.11
242.215	188.35
242.59	207.73
242.965	249.48
243.341	318.95
243.716	445.53
244.091	720.77
244.467	1179.93
244.842	4375
245.217	-9168.27
245.592	-3331.38
245.967	-2449.23
246.343	-2392.71
246.718	-2380.65
247.093	-1964.08
247.468	-1598.79
247.843	-1250
248.218	-854.98
248.593	-636.19
248.967	-499.5
249.342	-446.49
249.717	-451.54
250.092	-476.06
250.467	-515.73
250.841	-726.22
251.216	-1874.9
251.591	3745.49
251.965	954.2
252.34	734.56
252.714	606.61
253.089	544.82
253.463	539.99
253.838	538.82
254.212	574.94
254.587	647.07
254.961	792.94
255.335	1367.29
255.71	-7820.49
256.084	-670.01
256.458	-344.98
256.832	-241.7
257.206	-202.43
257.581	-176.1
257.955	-163.84
258.329	-155.24
258.703	-144.92
259.077	-135.97
259.451	-128.78
259.825	-119.84
260.199	-116.98
260.572	-113.79
260.946	-108.77
261.32	-107.97
261.694	-105.02
262.068	-102.49
262.441	-100.87
262.815	-99.92
263.189	-100.8
263.562	-104.07
263.936	-116.85
264.309	-138.59
264.683	-161.28
265.056	-175.75
265.43	-183.98
265.803	-180.4
266.176	-176.21
266.55	-179.83
266.923	-173.48
267.296	-166.87
267.67	-162.27
268.043	-149.87
268.416	-138.58
268.789	-126.76
269.162	-113.49
269.535	-104.75
269.908	-99.86
270.281	-97.46
270.654	-96.48
271.027	-97.84
271.4	-99.93
271.773	-100.31
272.146	-98.46
272.519	-95.91
272.891	-92.08
273.264	-91.21
273.637	-91.13
274.01	-92.01
274.382	-90.06
274.755	-89.08
275.127	-87.89
275.5	-87.72
275.872	-88.85
276.245	-88.13
276.617	-90.98
276.99	-95.47
277.362	-99.12
277.734	-100.67
278.107	-99.52
278.479	-96.16
278.851	-91.85
279.223	-88.47
279.596	-86.26
279.968	-84.04
280.34	-84.73
280.712	-83.68
281.084	-79.1
281.456	-72.17
281.828	-66.23
282.2	-61.4
282.572	-58.2
282.944	-56.12
283.315	-55.42
283.687	-54.78
284.059	-55.21
284.431	-54.24
284.802	-53.07
285.174	-51.25
285.546	-50.05
285.917	-49.49
286.289	-48.22
286.66	-47.06
287.032	-46.67
287.403	-46.33
287.775	-45.91
288.146	-44.51
288.518	-44.62
288.889	-45.56
289.26	-47.37
289.632	-48
290.003	-49.46
290.374	-50.86
290.745	-51.16
291.116	-50
291.487	-48.48
291.858	-47.15
292.229	-46.56
292.6	-45.58
292.971	-44.31
293.342	-41.92
293.713	-39.7
294.084	-38.52
294.455	-37.91
294.826	-36.67
295.196	-36.54
295.567	-36.83
295.938	-36.83
296.308	-36.4
296.679	-35.23
297.05	-34.38
297.42	-34.43
297.791	-33.51
298.161	-32.37
298.532	-32.08
298.902	-31.69
299.272	-31.01
299.643	-30.26
300.013	-29.38
300.383	-28.83
300.754	-28.81
301.124	-29.4
301.494	-29.66
301.864	-29.6
302.234	-29.57
302.604	-30.09
302.974	-29.77
303.344	-29.4
303.714	-29.44
304.084	-28.84
304.454	-28.68
304.824	-27.93
305.194	-26.77
305.563	-25.91
305.933	-25.08
306.303	-23.77
306.673	-23.22
307.042	-22.51
307.412	-21.61
307.781	-20.6
308.151	-19.77
308.521	-19.18
308.89	-18.78
309.259	-18.35
309.629	-18.35
309.998	-18.27
310.368	-18.12
310.737	-18.05
311.106	-17.53
311.475	-17.06
311.845	-16.98
312.214	-16.76
312.583	-16.76
312.952	-16.72
313.321	-16.89
313.69	-17.5
314.059	-18.06
314.428	-18.26
314.797	-19.02
315.166	-19.91
315.535	-20.88
315.904	-21.58
316.272	-22.12
316.641	-22.45
317.01	-22.68
317.379	-22.79
317.747	-22.45
318.116	-22.03
318.484	-21.56
318.853	-21.62
319.221	-21.29
319.59	-21.07
319.958	-20.8
320.327	-20.49
320.695	-19.97
321.063	-19.74
321.432	-19.12
321.8	-18.54
322.168	-17.73
322.536	-16.64
322.905	-15.75
323.273	-15.1
323.641	-14.69
324.009	-14.43
324.377	-13.96
324.745	-13.73
325.113	-13.37
325.481	-13.06
325.849	-12.64
326.216	-12.02
326.584	-11.41
326.952	-11.12
327.32	-10.54
327.687	-9.99
328.055	-9.59
328.423	-9.65
328.79	-9.46
329.158	-9.29
329.525	-9.02
329.893	-8.86
330.26	-8.73
330.628	-8.87
330.995	-8.62
331.362	-8.18
331.73	-7.66
332.097	-7.17
332.464	-6.89
332.831	-6.6
333.199	-6.28
333.566	-6.05
333.933	-6.24
334.3	-6.39
334.667	-6.14
335.034	-5.93
335.401	-5.91
335.768	-5.78
336.135	-5.46
336.502	-5.27
336.868	-5
337.235	-4.81
337.602	-4.6
337.969	-4.39
338.335	-4.1
338.702	-3.9
339.069	-3.79
339.435	-3.75
339.802	-3.83
340.168	-3.68
340.535	-3.47
340.901	-3.54
341.267	-3.45
341.634	-3.23
342	-2.87
342.366	-2.77
342.733	-2.73
343.099	-2.6
343.465	-2.47
343.831	-2.29
344.197	-2.17
344.563	-2.06
344.929	-1.87
345.295	-1.64
345.661	-1.51
346.027	-1.35
346.393	-1.23
346.759	-1.17
347.125	-0.99
347.491	-0.8
347.856	-0.67
348.222	-0.64
348.588	-0.45
348.953	-0.43
349.319	-0.28
349.684	-0.24
350.05	-0.15
350.415	-0.01
350.781	0.12
351.146	0.23
351.512	0.26
351.877	0.5
352.242	0.66
352.608	0.72
352.973	0.68
353.338	0.77
353.703	0.84
354.068	0.89
354.433	1.04
354.798	1.23
355.164	1.29
355.528	1.3
355.893	1.35
356.258	1.38
356.623	1.5
356.988	1.57
357.353	1.79
357.718	1.96
358.082	2.04
358.447	2.04
358.812	2.1
359.176	2.16
359.541	2.22
359.905	2.25
360.27	2.31
360.634	2.4
360.999	2.37
361.363	2.42
361.728	2.46
362.092	2.45
362.456	2.36
362.821	2.44
363.185	2.51
363.549	2.66
363.913	2.76
364.277	2.86
364.641	2.95
365.005	2.91
365.369	2.87
365.733	2.96
366.097	3.13
366.461	3.2
366.825	3.32
367.189	3.44
367.553	3.57
367.916	3.66
368.28	3.79
368.644	4.01
369.007	4.15
369.371	4.3
369.734	4.45
370.098	4.66
370.461	4.78
370.825	4.93
371.188	5.05
371.552	5.18
371.915	5.28
372.278	5.47
372.642	5.64
373.005	5.77
373.368	5.81
373.731	5.87
374.094	5.93
374.457	5.96
374.82	5.99
375.183	6.05
375.546	6.11
375.909	6.15
376.272	6.2
376.635	6.19
376.998	6.24
377.361	6.32
377.723	6.36
378.086	6.42
378.449	6.5
378.811	6.58
379.174	6.68
379.537	6.73
379.899	6.77
380.262	6.82
380.624	6.87
380.987	6.91
381.349	6.97
381.711	7.06
382.074	7.17
382.436	7.23
382.798	7.22
383.16	7.23
383.522	7.28
383.884	7.37
384.247	7.51
384.609	7.57
384.971	7.56
385.333	7.6
385.695	7.61
386.056	7.69
386.418	7.68
386.78	7.69
387.142	7.71
387.504	7.73
387.865	7.7
388.227	7.72
388.589	7.75
388.95	7.74
389.312	7.74
389.673	7.7
390.035	7.69
390.396	7.74
390.758	7.78
391.119	7.79
391.48	7.74
391.842	7.7
392.203	7.69
392.564	7.74
392.925	7.74
393.286	7.76
393.648	7.71
394.009	7.72
394.37	7.7
394.731	7.67
395.092	7.61
395.452	7.64
395.813	7.69
396.174	7.69
396.535	7.71
396.896	7.74
397.257	7.79
397.617	7.83
397.978	7.85
398.338	7.91
398.699	7.92
399.06	7.92
399.42	7.87
399.781	7.88
400.141	7.86
400.501	7.86
400.862	7.86
401.222	7.89
401.582	7.89
401.943	7.89
402.303	7.94
402.663	7.99
403.023	7.97
403.383	7.94
403.743	7.93
404.103	7.93
404.463	7.94
404.823	7.95
405.183	7.95
405.543	7.96
405.903	7.93
406.262	7.94
406.622	7.95
406.982	8.01
407.342	8.02
407.701	8.02
408.061	8
408.42	8.02
408.78	8
409.139	8
409.499	8
409.858	8.01
410.217	7.99
410.577	8
410.936	8.01
411.295	8
411.655	8.01
412.014	7.96
412.373	7.9
412.732	7.84
413.091	7.79
413.45	7.74
413.809	7.7
414.168	7.66
414.527	7.59
414.886	7.52
415.245	7.45
415.603	7.38
415.962	7.32
416.321	7.27
416.679	7.21
417.038	7.14
417.397	7.06
417.755	7.01
418.114	6.95
418.472	6.9
418.831	6.88
419.189	6.83
419.547	6.79
419.906	6.76
420.264	6.72
420.622	6.67
420.981	6.63
421.339	6.61
421.697	6.57
422.055	6.56
422.413	6.55
422.771	6.55
423.129	6.55
423.487	6.56
423.845	6.57
424.203	6.58
424.56	6.6
424.918	6.61
425.276	6.63
425.634	6.67
425.991	6.69
426.349	6.68
426.707	6.71
427.064	6.74
427.422	6.77
427.779	6.79
428.137	6.86
428.494	6.93
428.851	6.97
429.209	7
429.566	7.01
429.923	7.03
430.28	7.02
430.637	7.04
430.995	7.01
431.352	7
431.709	7.02
432.066	7.03
432.423	7.06
432.78	7.06
433.137	7.05
433.493	7.03
433.85	7.05
434.207	7.03
434.564	7.02
434.92	7.03
435.277	7.02
435.634	7
435.99	6.97
436.347	6.97
436.703	6.96
437.06	6.95
437.416	6.95
437.773	6.94
438.129	6.92
438.485	6.92
438.841	6.92
439.198	6.93
439.554	6.92
439.91	6.91
440.266	6.91
440.622	6.9
440.978	6.9
441.334	6.88
441.69	6.86
442.046	6.84
442.402	6.79
442.758	6.74
443.113	6.73
443.469	6.71
443.825	6.7
444.181	6.7
444.536	6.69
444.892	6.7
445.247	6.71
445.603	6.7
445.958	6.69
446.314	6.68
446.669	6.67
447.025	6.64
447.38	6.64
447.735	6.62
448.09	6.61
448.446	6.59
448.801	6.59
449.156	6.6
449.511	6.62
449.866	6.65
450.221	6.71
450.576	6.72
450.931	6.73
451.286	6.73
451.641	6.75
451.995	6.75
452.35	6.77
452.705	6.77
453.06	6.79
453.414	6.82
453.769	6.84
454.123	6.82
454.478	6.83
454.832	6.83
455.187	6.82
455.541	6.82
455.896	6.81
456.25	6.78
456.604	6.77
456.958	6.74
457.313	6.73
457.667	6.74
458.021	6.75
458.375	6.77
458.729	6.81
459.083	6.82
459.437	6.84
459.791	6.84
460.145	6.86
460.499	6.88
460.852	6.89
461.206	6.91
461.56	6.93
461.914	6.95
462.267	6.96
462.621	7.01
462.974	7.04
463.328	7.12
463.681	7.19
464.035	7.26
464.388	7.33
464.742	7.39
465.095	7.43
465.448	7.48
465.801	7.51
466.155	7.54
466.508	7.58
466.861	7.61
467.214	7.63
467.567	7.65
467.92	7.67
468.273	7.68
468.626	7.72
468.979	7.74
469.332	7.77
469.684	7.79
470.037	7.81
470.39	7.83
470.743	7.84
471.095	7.87
471.448	7.88
471.8	7.9
472.153	7.92
472.505	7.92
472.858	7.93
473.21	7.92
473.562	7.9
473.915	7.88
474.267	7.87
474.619	7.85
474.971	7.81
475.324	7.78
475.676	7.78
476.028	7.76
476.38	7.74
476.732	7.72
477.084	7.68
477.436	7.63
477.787	7.59
478.139	7.56
478.491	7.5
478.843	7.43
479.195	7.38
479.546	7.29
479.898	7.16
480.249	7.05
480.601	6.97
480.952	6.9
481.304	6.85
481.655	6.82
482.007	6.79
482.358	6.78
482.709	6.76
483.061	6.74
483.412	6.73
483.763	6.72
484.114	6.7
484.465	6.69
484.816	6.69
485.167	6.68
485.518	6.68
485.869	6.69
486.22	6.71
486.571	6.72
486.922	6.74
487.272	6.78
487.623	6.82
487.974	6.88
488.324	6.93
488.675	6.98
489.025	7.03
489.376	7.07
489.726	7.12
490.077	7.17
490.427	7.22
490.778	7.28
491.128	7.34
491.478	7.43
491.828	7.53
492.179	7.62
492.529	7.71
492.879	7.8
493.229	7.87
493.579	7.94
493.929	8.01
494.279	8.07
494.629	8.16
494.979	8.28
495.328	8.42
495.678	8.59
496.028	8.75
496.378	8.91
496.727	9.05
497.077	9.17
497.426	9.31
497.776	9.41
498.125	9.53
498.475	9.65
498.824	9.76
499.174	9.84
499.523	9.95
499.872	10.07
500.221	10.2
500.571	10.34
500.92	10.46
501.269	10.61
501.618	10.74
501.967	10.86
502.316	10.99
502.665	11.1
503.014	11.23
503.363	11.34
503.711	11.44
504.06	11.54
504.409	11.65
504.758	11.72
505.106	11.81
505.455	11.89
505.803	11.96
506.152	12.04
506.5	12.14
506.849	12.21
507.197	12.27
507.546	12.36
507.894	12.43
508.242	12.53
508.59	12.6
508.939	12.67
509.287	12.76
509.635	12.8
509.983	12.88
510.331	12.93
510.679	13.01
511.027	13.05
511.375	13.11
511.723	13.15
512.07	13.21
512.418	13.27
512.766	13.35
513.114	13.41
513.461	13.47
513.809	13.5
514.156	13.56
514.504	13.63
514.851	13.68
515.199	13.73
515.546	13.75
515.893	13.79
516.241	13.85
516.588	13.88
516.935	13.93
517.282	13.96
517.63	13.98
517.977	13.99
518.324	14.04
518.671	14.07
519.018	14.12
519.365	14.15
519.711	14.2
520.058	14.22
520.405	14.24
520.752	14.28
521.099	14.32
521.445	14.35
521.792	14.38
522.138	14.4
522.485	14.44
522.832	14.48
523.178	14.53
523.524	14.56
523.871	14.59
524.217	14.62
524.563	14.66
524.91	14.68
525.256	14.67
525.602	14.69
525.948	14.7
526.294	14.7
526.64	14.71
526.986	14.72
527.332	14.74
527.678	14.76
528.024	14.78
528.37	14.81
528.716	14.83
529.061	14.85
529.407	14.88
529.753	14.9
530.098	14.91
530.444	14.92
530.789	14.94
531.135	14.96
531.48	15
531.826	15.04
532.171	15.09
532.516	15.14
532.862	15.18
533.207	15.23
533.552	15.27
533.897	15.31
534.242	15.36
534.587	15.38
534.932	15.4
535.277	15.42
535.622	15.42
535.967	15.45
536.312	15.49
536.657	15.52
537.001	15.56
537.346	15.59
537.691	15.63
538.035	15.66
538.38	15.69
538.724	15.69
539.069	15.68
539.413	15.69
539.758	15.73
540.102	15.75
540.446	15.76
540.791	15.8
541.135	15.83
541.479	15.85
541.823	15.85
542.167	15.87
542.512	15.88
542.856	15.89
543.2	15.91
543.543	15.91
543.887	15.92
544.231	15.93
544.575	15.99
544.919	16.02
545.262	16.03
545.606	16.06
545.95	16.1
546.293	16.12
546.637	16.16
546.98	16.17
547.324	16.22
547.667	16.26
548.011	16.26
548.354	16.26
548.697	16.24
549.04	16.28
549.384	16.27
549.727	16.29
550.07	16.29
550.413	16.3
550.756	16.3
551.099	16.31
551.442	16.31
551.785	16.27
552.128	16.29
552.47	16.31
552.813	16.29
553.156	16.29
553.499	16.29
553.841	16.27
554.184	16.26
554.526	16.26
554.869	16.22
555.211	16.23
555.554	16.22
555.896	16.24
556.238	16.22
556.581	16.21
556.923	16.21
557.265	16.21
557.607	16.19
557.949	16.19
558.291	16.2
558.633	16.21
558.975	16.2
559.317	16.17
559.659	16.2
560.001	16.17
560.343	16.17
560.685	16.15
561.026	16.12
561.368	16.11
561.71	16.07
562.051	16.06
562.393	16.08
562.734	16.06
563.076	16.04
563.417	16.06
563.759	16.05
564.1	16.03
564.441	16.02
564.782	16.04
565.124	16.04
565.465	16.02
565.806	16.02
566.147	16.01
566.488	15.99
566.829	15.96
567.17	15.96
567.511	15.92
567.851	15.9
568.192	15.9
568.533	15.9
568.874	15.9
569.214	15.89
569.555	15.83
569.895	15.84
570.236	15.82
570.576	15.77
570.917	15.75
571.257	15.75
571.598	15.72
571.938	15.68
572.278	15.68
572.618	15.65
572.959	15.6
573.299	15.57
573.639	15.54
573.979	15.52
574.319	15.54
574.659	15.53
574.999	15.5
575.339	15.44
575.678	15.43
576.018	15.39
576.358	15.36
576.698	15.36
577.037	15.31
577.377	15.28
577.716	15.26
578.056	15.24
578.395	15.2
578.735	15.16
579.074	15.13
579.413	15.07
579.753	15.05
580.092	15.06
580.431	15.04
580.77	15.04
581.109	15
581.448	14.93
581.787	14.84
582.126	14.84
582.465	14.81
582.804	14.76
583.143	14.74
583.482	14.71
583.82	14.66
584.159	14.66
584.498	14.63
584.836	14.63
585.175	14.62
585.514	14.57
585.852	14.54
586.19	14.51
586.529	14.49
586.867	14.48
587.205	14.44
587.544	14.44
587.882	14.44
588.22	14.44
588.558	14.44
588.896	14.45
589.234	14.44
589.572	14.43
589.91	14.43
590.248	14.4
590.586	14.39
590.924	14.39
591.262	14.35
591.599	14.31
591.937	14.28
592.275	14.26
592.612	14.25
592.95	14.27
593.287	14.28
593.625	14.27
593.962	14.26
594.299	14.28
594.637	14.26
594.974	14.26
595.311	14.23
595.648	14.2
595.985	14.19
596.322	14.17
596.659	14.17
596.996	14.14
597.333	14.08
597.67	14.05
598.007	14.01
598.344	14.01
598.681	14.02
599.017	13.98
599.354	13.93
599.691	13.9
600.027	13.87
600.364	13.82
600.7	13.8
601.037	13.78
601.373	13.73
601.71	13.73
602.046	13.69
602.382	13.67
602.718	13.65
603.054	13.65
603.391	13.59
603.727	13.57
604.063	13.57
604.399	13.56
604.735	13.54
605.071	13.52
605.406	13.51
605.742	13.49
606.078	13.48
606.414	13.49
606.749	13.49
607.085	13.45
607.421	13.43
607.756	13.37
608.092	13.29
608.427	13.22
608.762	13.16
609.098	13.09
609.433	13.03
609.768	12.97
610.104	12.91
610.439	12.89
610.774	12.86
611.109	12.82
611.444	12.79
611.779	12.76
612.114	12.71
612.449	12.65
612.784	12.57
613.118	12.54
613.453	12.46
613.788	12.39
614.123	12.32
614.457	12.24
614.792	12.21
615.126	12.14
615.461	12.11
615.795	12.04
616.13	11.99
616.464	11.97
616.798	11.97
617.132	11.97
617.467	11.98
617.801	11.94
618.135	11.9
618.469	11.9
618.803	11.84
619.137	11.82
619.471	11.79
619.805	11.76
620.139	11.68
620.472	11.66
620.806	11.58
621.14	11.55
621.473	11.53
621.807	11.49
622.141	11.45
622.474	11.38
622.808	11.36
623.141	11.36
623.474	11.3
623.808	11.29
624.141	11.28
624.474	11.21
624.807	11.19
625.141	11.18
625.474	11.14
625.807	11.14
626.14	11.15
626.473	11.16
626.806	11.18
627.138	11.18
627.471	11.15
627.804	11.13
628.137	11.14
628.469	11.1
628.802	11.05
629.135	11.03
629.467	11.03
629.8	10.99
630.132	10.97
630.465	11
630.797	10.97
631.129	10.93
631.461	10.92
631.794	10.9
632.126	10.81
632.458	10.8
632.79	10.77
633.122	10.73
633.454	10.66
633.786	10.61
634.118	10.56
634.45	10.57
634.781	10.56
635.113	10.51
635.445	10.48
635.777	10.5
636.108	10.52
636.44	10.5
636.771	10.49
637.103	10.4
637.434	10.31
637.765	10.26
638.097	10.22
638.428	10.15
638.759	10.08
639.09	10.08
639.422	10.01
639.753	9.96
640.084	9.92
640.415	9.92
640.746	9.91
641.077	9.89
641.407	9.82
641.738	9.8
642.069	9.78
642.4	9.76
642.73	9.75
643.061	9.71
643.392	9.7
643.722	9.7
644.053	9.69
644.383	9.68
644.713	9.63
645.044	9.57
645.374	9.54
645.704	9.55
646.034	9.57
646.365	9.61
646.695	9.6
647.025	9.57
647.355	9.51
647.685	9.54
648.015	9.54
648.344	9.54
648.674	9.52
649.004	9.49
649.334	9.54
649.663	9.56
649.993	9.55
650.323	9.53
650.652	9.44
650.982	9.43
651.311	9.44
651.64	9.46
651.97	9.45
652.299	9.49
652.628	9.46
652.958	9.43
653.287	9.41
653.616	9.38
653.945	9.34
654.274	9.3
654.603	9.25
654.932	9.2
655.261	9.22
655.589	9.24
655.918	9.27
656.247	9.28
656.576	9.28
656.904	9.35
657.233	9.4
657.561	9.48
657.89	9.58
658.218	9.56
658.547	9.54
658.875	9.56
659.203	9.55
659.532	9.55
659.86	9.53
660.188	9.48
660.516	9.48
660.844	9.49
661.172	9.49
661.5	9.45
661.828	9.41
662.156	9.33
662.484	9.26
662.811	9.2
663.139	9.1
663.467	8.98
663.794	8.85
664.122	8.75
664.45	8.69
664.777	8.58
665.104	8.53
665.432	8.48
665.759	8.44
666.086	8.38
666.414	8.41
666.741	8.4
667.068	8.4
667.395	8.38
667.722	8.4
668.049	8.41
668.376	8.42
668.703	8.44
669.03	8.48
669.357	8.46
669.683	8.43
670.01	8.45
670.337	8.47
670.663	8.48
670.99	8.41
671.317	8.32
671.643	8.32
671.969	8.35
672.296	8.34
672.622	8.29
672.948	8.28
673.275	8.16
673.601	8.1
673.927	8.07
674.253	8.1
674.579	8.04
674.905	8.02
675.231	8.04
675.557	8.04
675.883	8.06
676.209	8.11
676.534	8.16
676.86	8.13
677.186	8.18
677.511	8.23
677.837	8.33
678.162	8.38
678.488	8.35
678.813	8.38
679.139	8.43
679.464	8.45
679.789	8.51
680.114	8.58
680.44	8.64
680.765	8.65
681.09	8.61
681.415	8.59
681.74	8.59
682.065	8.52
682.39	8.45
682.714	8.38
683.039	8.32
683.364	8.31
683.689	8.33
684.013	8.28
684.338	8.16
684.662	8.14
684.987	8.12
685.311	8.11
685.636	8.03
685.96	7.98
686.284	7.94
686.608	7.87
686.933	7.83
687.257	7.79
687.581	7.74
687.905	7.76
688.229	7.77
688.553	7.77
688.877	7.79
689.201	7.83
689.524	7.82
689.848	7.84
690.172	7.8
690.496	7.77
690.819	7.75
691.143	7.74
691.466	7.72
691.79	7.73
692.113	7.67
692.436	7.63
692.76	7.62
693.083	7.6
693.406	7.59
693.729	7.52
694.053	7.53
694.376	7.55
694.699	7.52
695.022	7.63
695.344	7.72
695.667	7.85
695.99	7.95
696.313	8.07
696.636	8.15
696.958	8.2
697.281	8.28
697.604	8.38
697.926	8.38
698.249	8.37
698.571	8.32
698.893	8.26
699.216	8.23
699.538	8.18
699.86	8.18
700.182	8.11
700.504	8.08
700.827	8.09
701.149	8.11
701.471	8.04
701.793	7.91
702.114	7.82
702.436	7.64
702.758	7.46
703.08	7.28
703.401	7.09
703.723	6.96
704.045	6.81
704.366	6.62
704.688	6.59
705.009	6.47
705.331	6.48
705.652	6.6
705.973	6.67
706.294	6.64
706.616	6.64
706.937	6.62
707.258	6.72
707.579	6.78
707.9	6.81
708.221	6.89
708.542	6.94
708.863	6.94
709.183	6.95
709.504	7
709.825	7.09
710.145	7.13
710.466	7.04
710.787	7
711.107	6.96
711.427	6.95
711.748	7
712.068	7.05
712.388	7.09
712.709	7.12
713.029	7.24
713.349	7.26
713.669	7.38
713.989	7.41
714.309	7.38
714.629	7.36
714.949	7.32
715.269	7.33
715.589	7.31
715.908	7.34
716.228	7.31
716.548	7.27
716.867	7.33
717.187	7.49
717.506	7.58
717.826	7.67
718.145	7.69
718.465	7.8
718.784	7.87
719.103	7.82
719.422	7.83
719.741	7.76
720.061	7.86
720.38	7.87
720.699	7.88
721.018	7.91
721.336	7.8
721.655	7.92
721.974	7.96
722.293	8.07
722.612	8.2
722.93	8.38
723.249	8.55
723.567	8.66
723.886	8.74
724.204	8.88
724.523	8.99
724.841	9.1
725.159	9.16
725.477	9.18
725.796	9.36
726.114	9.54
726.432	9.75
726.75	9.79
727.068	9.88
727.386	10.03
727.704	10.18
728.022	10.44
728.339	10.54
728.657	10.76
728.975	10.84
729.292	10.85
729.61	10.93
729.928	10.93
730.245	10.91
730.562	10.96
730.88	11.03
731.197	11.16
731.514	11.36
731.832	11.5
732.149	11.65
732.466	11.69
732.783	11.79
733.1	11.99
733.417	12.14
733.734	12.32
734.051	12.37
734.368	12.48
734.684	12.62
735.001	12.71
735.318	12.71
735.634	12.83
735.951	12.92
736.268	13.06
736.584	13.29
736.9	13.57
737.217	13.76
737.533	13.85
737.849	13.96
738.166	14.09
738.482	14.19
738.798	14.38
739.114	14.58
739.43	14.74
739.746	14.73
740.062	14.81
740.378	14.99
740.693	15.12
741.009	15.26
741.325	15.23
741.641	15.44
741.956	15.69
742.272	15.92
742.587	16.15
742.903	16.29
743.218	16.43
743.533	16.49
743.849	16.58
744.164	16.81
744.479	16.91
744.794	16.85
745.109	16.95
745.424	17.01
745.739	17.04
746.054	17.02
746.369	17.05
746.684	17.17
746.999	17.11
747.313	17.2
747.628	17.18
747.943	17.43
748.257	17.47
748.572	17.4
748.886	17.43
749.201	17.33
749.515	17.27
749.829	17.2
750.144	17.29
750.458	17.25
750.772	17.15
751.086	17.21
751.4	17.4
751.714	17.57
752.028	17.63
752.342	17.76
752.656	17.87
752.97	17.91
753.284	17.94
753.597	18.04
753.911	18.17
754.225	18.35
754.538	18.49
754.852	18.51
755.165	18.63
755.478	18.65
755.792	18.91
756.105	19.23
756.418	19.4
756.731	19.47
757.045	19.66
757.358	19.91
757.671	20.06
757.984	20.06
758.297	20.01
758.609	20.11
758.922	20.16
759.235	20.21
759.548	20.24
759.86	20.34
760.173	20.16
760.486	19.96
760.798	19.76
761.111	19.56
761.423	19.52
761.735	19.48
762.048	19.38
762.36	19.32
762.672	19.21
762.984	19.26
763.296	19.23
763.608	19.28
763.92	19.31
764.232	19.33
764.544	19.47
764.856	19.63
765.168	19.65
765.48	19.77
765.791	19.97
766.103	20.06
766.414	20.11
766.726	20.48
767.037	20.85
767.349	21.14
767.66	21.53
767.972	21.9
768.283	22.38
768.594	22.84
768.905	23.12
769.216	23.43
769.527	23.75
769.838	24.23
770.149	24.5
770.46	24.84
770.771	25.01
771.082	25.19
771.393	25.33
771.703	25.48
772.014	25.69
772.324	25.76
772.635	26.15
772.945	26.35
773.256	26.44
773.566	26.58
773.877	26.98
774.187	27.02
774.497	27.07
774.807	26.8
775.117	26.81
775.427	27.3
775.737	27.57
776.047	27.66
776.357	27.62
776.667	27.7
776.977	27.72
777.287	27.78
777.596	27.72
777.906	27.7
778.216	27.87
778.525	27.79
778.835	27.83
779.144	27.85
779.453	27.86
779.763	28.04
780.072	28.53
780.381	28.52
780.69	28.76
781	29.02
781.309	29.43
781.618	29.66
781.927	29.53
782.235	29.51
782.544	29.71
782.853	29.87
783.162	30
783.471	30.22
783.779	30.43
784.088	30.79
784.396	30.94
784.705	30.92
785.013	30.72
785.322	30.79
785.63	30.6
785.938	30.65
786.246	30.48
786.554	30.19
786.863	30.09
787.171	30
787.479	29.95
787.787	29.98
788.094	30.08
788.402	30.13
788.71	30.18
789.018	30.01
789.326	30.02
789.633	30.19
789.941	29.98
790.248	30.13
790.556	30.13
790.863	30.1
791.171	30.24
791.478	30.64
791.785	30.76
792.092	31.17
792.399	31.28
792.707	31.52
793.014	31.5
793.321	31.62
793.628	31.73
793.934	31.66
794.241	31.66
794.548	31.51
794.855	31.48
795.161	31.58
795.468	31.54
795.775	31.55
796.081	31.47
796.388	31.71
796.694	31.76
797	31.81
797.307	31.81
797.613	32.02
797.919	32.01
798.225	31.92
798.531	31.59
798.837	31.8
799.143	31.78
799.449	31.79
799.755	32.14
800.061	32.33
800.367	32.68
800.672	32.86
800.978	33.23
801.284	33.33
801.589	33.42
801.895	33.54
802.2	34.03
802.506	33.95
802.811	33.84
803.116	33.83
803.421	33.77
803.727	34.14
804.032	34.18
804.337	34.34
804.642	34.31
804.947	34.67
805.252	34.77
805.556	34.89
805.861	35.2
806.166	35.09
806.471	35.2
806.775	35.27
807.08	35.7
807.384	35.66
807.689	35.87
807.993	36.15
808.298	36.68
808.602	36.53
808.906	36.78
809.211	37.02
809.515	37.12
809.819	37.13
810.123	36.94
810.427	37.04
810.731	37.04
811.035	37.38
811.338	37.62
811.642	37.69
811.946	37.7
812.25	37.74
812.553	37.65
812.857	37.51
813.16	37.6
813.464	37.5
813.767	37.97
814.07	37.86
814.374	37.54
814.677	37.24
814.98	37.23
815.283	37.09
815.586	36.95
815.889	36.74
816.192	36.91
816.495	36.72
816.798	36.26
817.101	35.98
817.404	35.7
817.706	35.18
818.009	34.41
818.312	33.63
818.614	32.36
818.917	30.83
819.219	28.94
819.521	26.82
819.824	24.73
820.126	23.29
820.428	22.35
820.73	21.58
821.032	21.03
821.334	20.61
821.636	20.33
821.938	20.09
822.24	20.01
822.542	19.95
822.844	19.89
823.145	19.84
823.447	19.81
823.749	19.72
824.05	19.54
824.352	19.44
824.653	19.39
824.955	19.38
825.256	19.41
825.557	19.52
825.858	19.76
826.16	20.21
826.461	20.66
826.762	21.16
827.063	21.68
827.364	22.2
827.665	22.78
827.965	23.34
828.266	23.93
828.567	24.37
828.868	24.64
829.168	24.96
829.469	25.28
829.769	25.47
830.07	25.89
830.37	26.41
830.67	27.01
830.971	27.58
831.271	28.04
831.571	28.44
831.871	28.87
832.171	29.01
832.471	29.13
832.771	29.06
833.071	29.19
833.371	29.53
833.671	29.88
833.971	30
834.27	30.1
834.57	30.02
834.869	30.09
835.169	30.31
835.468	30.33
835.768	30.36
836.067	30.63
836.367	30.72
836.666	31.14
836.965	31.46
837.264	31.89
837.563	32.59
837.862	33.8
838.161	34.68
838.46	35.55
838.759	36.27
839.058	37.35
839.356	37.93
839.655	38.43
839.954	38.7
840.252	39.04
840.551	39.28
840.849	39.76
841.148	39.9
841.446	40.1
841.744	40.41
842.043	41.23
842.341	41.41
842.639	41.74
842.937	42.24
843.235	42.84
843.533	44.08
843.831	45.01
844.129	45.47
844.427	46.37
844.724	47.76
845.022	49.13
845.32	50.14
845.617	51.37
845.915	52.44
846.212	53.85
846.51	54.58
846.807	55.69
847.104	55.9
847.402	55.94
847.699	56.41
847.996	57.19
848.293	56.85
848.59	57.06
848.887	57.68
849.184	57.67
849.481	57.96
849.778	57.01
850.074	57.03
850.371	57.04
850.668	56.59
850.964	56.66
851.261	56.39
851.557	55.96
851.854	56.54
852.15	56.8
852.446	56.7
852.743	56.65
853.039	55.92
853.335	56.6
853.631	57.47
853.927	57.37
854.223	56.88
854.519	56.31
854.815	56.41
855.111	55.35
855.406	55.5
855.702	55.16
855.998	55.3
856.293	55.14
856.589	55.27
856.884	55.9
857.18	56.32
857.475	56.2
857.77	56.68
858.066	56.69
858.361	55.82
858.656	54.62
858.951	54.38
859.246	54.39
859.541	53.87
859.836	53.19
860.131	52.95
860.426	54.02
860.72	54.64
861.015	55.22
861.31	55.88
861.604	55.58
861.899	55.58
862.193	56.24
862.487	56.86
862.782	57.02
863.076	56.36
863.37	55.5
863.664	56.34
863.959	56.8
864.253	56.17
864.547	56.78
864.841	57.28
865.135	57.22
865.428	57.16
865.722	57.6
866.016	57.9
866.31	57.51
866.603	56.68
866.897	57.41
867.19	56.75
867.484	56.7
867.777	57.13
868.07	57.92
868.364	57.91
868.657	57.5
868.95	57.66
869.243	58.66
869.536	58.39
869.829	57.93
870.122	57.81
870.415	57.8
870.708	57.24
871	57.23
871.293	56.58
871.586	57.02
871.878	56.44
872.171	56.46
872.463	57.02
872.756	57.44
873.048	56.75
873.341	56.61
873.633	56.86
873.925	56.29
874.217	55.51
874.509	55.12
874.801	54.68
875.093	53.53
875.385	52.31
875.677	53.26
875.969	52.95
