Data from pcis_p_h3_p1_Reflection_3.txt Node
Date: Wed Jul 12 17:51:31 ART 2017
User: rodoncho
Spectrometer: USB2E3644
Trigger mode: 4
Integration Time (sec): 6.000000E-2
Scans to average: 10
Electric dark correction enabled: true
Nonlinearity correction enabled: false
Boxcar width: 10
XAxis mode: Wavelengths
Number of Pixels in Spectrum: 2048
>>>>>Begin Spectral Data<<<<<
178.315	-510
178.696	587.5
179.076	686.84
179.457	495.65
179.838	250
180.218	900
180.599	112.5
180.979	270
181.36	7.76
181.74	22.5
182.121	59.37
182.501	99.58
182.881	91.98
183.262	102.98
183.642	179.27
184.022	207.14
184.402	155
184.783	176.67
185.163	212.96
185.543	217.44
185.923	203.97
186.303	192.86
186.683	160.85
187.063	155.16
187.443	143.96
187.823	133.82
188.203	127.39
188.583	117.99
188.963	112.24
189.343	100.17
189.723	93.88
190.102	96.24
190.482	99.87
190.862	98.61
191.242	102.41
191.621	109.24
192.001	112.47
192.38	109.62
192.76	107.09
193.14	107.82
193.519	109.61
193.898	109.69
194.278	110.73
194.657	109.7
195.037	108.9
195.416	110.67
195.795	110.74
196.175	112.07
196.554	112.54
196.933	116.36
197.312	119.57
197.692	125.41
198.071	126.17
198.45	121.97
198.829	123.56
199.208	122.2
199.587	121.66
199.966	119.59
200.345	117.51
200.724	116.63
201.103	114.67
201.482	111.7
201.86	111.05
202.239	108.8
202.618	107.33
202.997	105.48
203.375	103.31
203.754	101.99
204.133	102.16
204.511	103.45
204.89	103.72
205.269	102.74
205.647	102.22
206.026	102
206.404	103.89
206.782	102.07
207.161	101.59
207.539	101.03
207.918	100.4
208.296	101.18
208.674	101.27
209.052	101.44
209.431	102.32
209.809	102.23
210.187	104.11
210.565	106.77
210.943	108.65
211.321	110.16
211.699	112.74
212.077	111.89
212.455	109.81
212.833	108.23
213.211	108.1
213.589	107.62
213.967	108.64
214.345	108.91
214.722	110.22
215.1	110.22
215.478	110.93
215.855	112.33
216.233	113.4
216.611	113.2
216.988	112.24
217.366	111.19
217.743	112.72
218.121	113.87
218.498	112.69
218.876	111.98
219.253	112.33
219.631	111.85
220.008	114.01
220.385	116.09
220.762	117.36
221.14	118.66
221.517	117.71
221.894	117.77
222.271	117.88
222.648	117.38
223.025	116.57
223.402	117.43
223.78	118.15
224.157	118.91
224.533	120.11
224.91	122.74
225.287	123.08
225.664	122.5
226.041	120.32
226.418	120.85
226.795	121.6
227.171	121.14
227.548	120.96
227.925	119.89
228.301	119.41
228.678	118.94
229.055	118.87
229.431	119.79
229.808	118.57
230.184	119.04
230.561	121.08
230.937	122.18
231.313	121.75
231.69	121.6
232.066	120.31
232.442	120.47
232.819	120.35
233.195	120.68
233.571	119.75
233.947	120.65
234.323	120.86
234.699	122.1
235.075	122.29
235.451	121.9
235.827	123.55
236.203	123.91
236.579	124.08
236.955	124.34
237.331	125.15
237.707	129.54
238.083	131.47
238.459	134.18
238.834	139.34
239.21	143.28
239.586	147.8
239.961	150.75
240.337	152.23
240.713	154.65
241.088	157.58
241.464	160.96
241.839	164.77
242.215	171.78
242.59	182.74
242.965	205.95
243.341	252.8
243.716	314.12
244.091	419.41
244.467	551.83
244.842	758.33
245.217	1243.75
245.592	1501.5
245.967	1987.5
246.343	1924.68
246.718	1825.9
247.093	2055.48
247.468	2154.35
247.843	3281.52
248.218	-76625
248.593	-2617.8
248.967	-1248.79
249.342	-960.8
249.717	-882.87
250.092	-873.06
250.467	-1081.03
250.841	-1954.38
251.216	5394.83
251.591	1244.4
251.965	728.27
252.34	566.85
252.714	498.86
253.089	437.39
253.463	437.85
253.838	440.99
254.212	452.31
254.587	505.56
254.961	620.27
255.335	1117.59
255.71	-8936.11
256.084	-776.72
256.458	-385.1
256.832	-267.33
257.206	-220.79
257.581	-198.12
257.955	-185.5
258.329	-172.47
258.703	-162.31
259.077	-153.42
259.451	-146.83
259.825	-137.16
260.199	-131.48
260.572	-128.53
260.946	-121.99
261.32	-119.83
261.694	-114.85
262.068	-112.15
262.441	-110.1
262.815	-108.33
263.189	-109.4
263.562	-116.26
263.936	-132.68
264.309	-158.72
264.683	-187.45
265.056	-209.26
265.43	-220.46
265.803	-216.96
266.176	-207.47
266.55	-201.3
266.923	-194.92
267.296	-189.05
267.67	-179.16
268.043	-166.72
268.416	-153.94
268.789	-139.05
269.162	-121.52
269.535	-111.58
269.908	-105.53
270.281	-101.32
270.654	-102.7
271.027	-105.23
271.4	-106.76
271.773	-105.27
272.146	-102.58
272.519	-97.99
272.891	-94.83
273.264	-93.22
273.637	-91.95
274.01	-93.58
274.382	-92.91
274.755	-92.04
275.127	-90.46
275.5	-92.46
275.872	-91.58
276.245	-91.29
276.617	-94.16
276.99	-98.88
277.362	-103.41
277.734	-105.24
278.107	-103.88
278.479	-97.11
278.851	-92.88
279.223	-89.6
279.596	-88.37
279.968	-88.25
280.34	-89.26
280.712	-87.99
281.084	-83.75
281.456	-77.15
281.828	-71.3
282.2	-65.85
282.572	-60.82
282.944	-57.91
283.315	-56.2
283.687	-55.63
284.059	-55.25
284.431	-54.28
284.802	-53.69
285.174	-52.5
285.546	-50.8
285.917	-50.35
286.289	-49.44
286.66	-48
287.032	-47.2
287.403	-45.51
287.775	-44.11
288.146	-43.44
288.518	-42.5
288.889	-42.2
289.26	-43.7
289.632	-44.95
290.003	-46.73
290.374	-48.78
290.745	-49.43
291.116	-49.16
291.487	-47.87
291.858	-46.59
292.229	-45.55
292.6	-43.48
292.971	-42.03
293.342	-40.54
293.713	-38.43
294.084	-37.02
294.455	-36.49
294.826	-35.63
295.196	-35.94
295.567	-36.05
295.938	-35.81
296.308	-36.25
296.679	-35.24
297.05	-34.61
297.42	-33.73
297.791	-32.51
298.161	-31.42
298.532	-30.91
298.902	-30.74
299.272	-30.49
299.643	-29.71
300.013	-29.38
300.383	-29.43
300.754	-29.12
301.124	-29.21
301.494	-29.1
301.864	-28.97
302.234	-29.31
302.604	-29.85
302.974	-29.64
303.344	-29.63
303.714	-29.45
304.084	-28.6
304.454	-28.48
304.824	-27.41
305.194	-26.65
305.563	-25.9
305.933	-24.61
306.303	-23.1
306.673	-21.74
307.042	-20.58
307.412	-19.66
307.781	-18.4
308.151	-17.52
308.521	-17.16
308.89	-16.66
309.259	-16.21
309.629	-15.86
309.998	-15.19
310.368	-14.47
310.737	-14.09
311.106	-13.52
311.475	-12.72
311.845	-12.16
312.214	-11.61
312.583	-11.23
312.952	-10.84
313.321	-10.64
313.69	-10.55
314.059	-11.04
314.428	-11.28
314.797	-11.56
315.166	-12.21
315.535	-12.68
315.904	-13.04
316.272	-12.84
316.641	-12.76
317.01	-13.05
317.379	-13.07
317.747	-12.78
318.116	-12.63
318.484	-12.3
318.853	-11.64
319.221	-11.37
319.59	-11.24
319.958	-10.92
320.327	-10.64
320.695	-10.07
321.063	-9.76
321.432	-9.41
321.8	-8.83
322.168	-7.97
322.536	-7.26
322.905	-6.21
323.273	-5.56
323.641	-5.05
324.009	-5.02
324.377	-4.92
324.745	-4.55
325.113	-4.65
325.481	-4.26
325.849	-3.81
326.216	-3.27
326.584	-2.97
326.952	-2.96
327.32	-2.53
327.687	-2.11
328.055	-1.69
328.423	-1.62
328.79	-1.49
329.158	-1.36
329.525	-0.99
329.893	-0.94
330.26	-0.87
330.628	-0.94
330.995	-0.66
331.362	-0.34
331.73	0.17
332.097	0.45
332.464	0.68
332.831	0.99
333.199	1.19
333.566	1.5
333.933	1.38
334.3	1.27
334.667	1.56
335.034	1.53
335.401	1.34
335.768	1.19
336.135	1.28
336.502	1.43
336.868	1.67
337.235	1.91
337.602	2.18
337.969	2.31
338.335	2.65
338.702	2.91
339.069	3.1
339.435	3.3
339.802	3.65
340.168	3.92
340.535	4.31
340.901	4.3
341.267	4.3
341.634	4.67
342	5.07
342.366	5.31
342.733	5.52
343.099	5.85
343.465	6.04
343.831	6.26
344.197	6.38
344.563	6.54
344.929	6.55
345.295	6.75
345.661	7
346.027	7.1
346.393	7.12
346.759	7.15
347.125	7.13
347.491	7.17
347.856	7.24
348.222	7.12
348.588	7.32
348.953	7.41
349.319	7.43
349.684	7.33
350.05	7.41
350.415	7.59
350.781	7.65
351.146	7.8
351.512	7.91
351.877	8.16
352.242	8.19
352.608	8.16
352.973	8.1
353.338	8.08
353.703	8.08
354.068	8.12
354.433	8.25
354.798	8.42
355.164	8.5
355.528	8.46
355.893	8.51
356.258	8.46
356.623	8.61
356.988	8.64
357.353	8.84
357.718	8.87
358.082	8.95
358.447	8.97
358.812	9
359.176	9.04
359.541	9
359.905	9.09
360.27	9.24
360.634	9.38
360.999	9.43
361.363	9.59
361.728	9.63
362.092	9.71
362.456	9.72
362.821	9.77
363.185	9.9
363.549	10.02
363.913	10.12
364.277	10.11
364.641	10.15
365.005	10.23
365.369	10.32
365.733	10.35
366.097	10.5
366.461	10.57
366.825	10.62
367.189	10.71
367.553	10.74
367.916	10.84
368.28	10.86
368.644	11.05
369.007	11.08
369.371	11.16
369.734	11.23
370.098	11.38
370.461	11.47
370.825	11.5
371.188	11.62
371.552	11.71
371.915	11.83
372.278	11.95
372.642	11.97
373.005	12.04
373.368	12.01
373.731	11.99
374.094	12.05
374.457	12.04
374.82	12.05
375.183	12.03
375.546	12.03
375.909	12.07
376.272	12
376.635	12.01
376.998	11.96
377.361	11.95
377.723	11.98
378.086	11.99
378.449	12.07
378.811	12.13
379.174	12.15
379.537	12.18
379.899	12.24
380.262	12.29
380.624	12.27
380.987	12.34
381.349	12.38
381.711	12.39
382.074	12.44
382.436	12.56
382.798	12.61
383.16	12.63
383.522	12.65
383.884	12.69
384.247	12.74
384.609	12.84
384.971	12.87
385.333	12.88
385.695	12.88
386.056	12.86
386.418	12.79
386.78	12.81
387.142	12.77
387.504	12.69
387.865	12.61
388.227	12.62
388.589	12.62
388.95	12.58
389.312	12.54
389.673	12.49
390.035	12.39
390.396	12.36
390.758	12.31
391.119	12.26
391.48	12.27
391.842	12.2
392.203	12.15
392.564	12.13
392.925	12.07
393.286	12.04
393.648	11.99
394.009	12.01
394.37	11.94
394.731	11.91
395.092	11.85
395.452	11.85
395.813	11.82
396.174	11.81
396.535	11.79
396.896	11.75
397.257	11.79
397.617	11.78
397.978	11.8
398.338	11.84
398.699	11.82
399.06	11.81
399.42	11.76
399.781	11.69
400.141	11.61
400.501	11.58
400.862	11.57
401.222	11.56
401.582	11.51
401.943	11.5
402.303	11.49
402.663	11.55
403.023	11.53
403.383	11.51
403.743	11.47
404.103	11.5
404.463	11.53
404.823	11.53
405.183	11.54
405.543	11.5
405.903	11.49
406.262	11.5
406.622	11.49
406.982	11.48
407.342	11.56
407.701	11.6
408.061	11.58
408.42	11.56
408.78	11.57
409.139	11.6
409.499	11.63
409.858	11.67
410.217	11.64
410.577	11.6
410.936	11.61
411.295	11.62
411.655	11.55
412.014	11.53
412.373	11.46
412.732	11.38
413.091	11.32
413.45	11.22
413.809	11.15
414.168	11.06
414.527	10.99
414.886	10.85
415.245	10.75
415.603	10.66
415.962	10.53
416.321	10.43
416.679	10.32
417.038	10.2
417.397	10.05
417.755	9.94
418.114	9.86
418.472	9.76
418.831	9.69
419.189	9.61
419.547	9.54
419.906	9.45
420.264	9.35
420.622	9.27
420.981	9.2
421.339	9.14
421.697	9.05
422.055	9
422.413	8.98
422.771	8.95
423.129	8.93
423.487	8.92
423.845	8.89
424.203	8.88
424.56	8.87
424.918	8.89
425.276	8.91
425.634	8.92
425.991	8.92
426.349	8.93
426.707	8.95
427.064	8.95
427.422	8.99
427.779	9.06
428.137	9.11
428.494	9.18
428.851	9.24
429.209	9.3
429.566	9.34
429.923	9.34
430.28	9.34
430.637	9.36
430.995	9.35
431.352	9.37
431.709	9.4
432.066	9.43
432.423	9.46
432.78	9.47
433.137	9.5
433.493	9.55
433.85	9.57
434.207	9.56
434.564	9.57
434.92	9.55
435.277	9.56
435.634	9.58
435.99	9.59
436.347	9.58
436.703	9.59
437.06	9.6
437.416	9.64
437.773	9.64
438.129	9.65
438.485	9.66
438.841	9.68
439.198	9.67
439.554	9.66
439.91	9.64
440.266	9.63
440.622	9.59
440.978	9.55
441.334	9.49
441.69	9.45
442.046	9.39
442.402	9.33
442.758	9.23
443.113	9.17
443.469	9.08
443.825	9.03
444.181	8.99
444.536	8.93
444.892	8.86
445.247	8.83
445.603	8.77
445.958	8.73
446.314	8.68
446.669	8.62
447.025	8.57
447.38	8.53
447.735	8.48
448.09	8.45
448.446	8.41
448.801	8.36
449.156	8.34
449.511	8.32
449.866	8.32
450.221	8.34
450.576	8.35
450.931	8.35
451.286	8.34
451.641	8.32
451.995	8.33
452.35	8.35
452.705	8.32
453.06	8.34
453.414	8.36
453.769	8.36
454.123	8.39
454.478	8.4
454.832	8.41
455.187	8.41
455.541	8.39
455.896	8.37
456.25	8.39
456.604	8.4
456.958	8.41
457.313	8.44
457.667	8.47
458.021	8.51
458.375	8.58
458.729	8.65
459.083	8.71
459.437	8.78
459.791	8.83
460.145	8.9
460.499	8.97
460.852	9.03
461.206	9.1
461.56	9.18
461.914	9.26
462.267	9.36
462.621	9.49
462.974	9.64
463.328	9.83
463.681	10.01
464.035	10.21
464.388	10.38
464.742	10.54
465.095	10.7
465.448	10.85
465.801	11
466.155	11.12
466.508	11.23
466.861	11.33
467.214	11.46
467.567	11.59
467.92	11.66
468.273	11.76
468.626	11.85
468.979	11.93
469.332	12
469.684	12.05
470.037	12.11
470.39	12.17
470.743	12.22
471.095	12.28
471.448	12.31
471.8	12.35
472.153	12.36
472.505	12.35
472.858	12.34
473.21	12.27
473.562	12.22
473.915	12.14
474.267	12.05
474.619	11.96
474.971	11.84
475.324	11.75
475.676	11.66
476.028	11.54
476.38	11.43
476.732	11.3
477.084	11.16
477.436	11.03
477.787	10.88
478.139	10.72
478.491	10.55
478.843	10.4
479.195	10.2
479.546	9.95
479.898	9.66
480.249	9.36
480.601	9.13
480.952	8.97
481.304	8.87
481.655	8.79
482.007	8.73
482.358	8.69
482.709	8.65
483.061	8.6
483.412	8.56
483.763	8.51
484.114	8.49
484.465	8.46
484.816	8.44
485.167	8.43
485.518	8.43
485.869	8.43
486.22	8.45
486.571	8.48
486.922	8.53
487.272	8.6
487.623	8.7
487.974	8.82
488.324	8.95
488.675	9.05
489.025	9.16
489.376	9.25
489.726	9.35
490.077	9.45
490.427	9.56
490.778	9.71
491.128	9.89
491.478	10.08
491.828	10.31
492.179	10.54
492.529	10.76
492.879	11.01
493.229	11.23
493.579	11.45
493.929	11.67
494.279	11.87
494.629	12.12
494.979	12.42
495.328	12.77
495.678	13.16
496.028	13.57
496.378	13.91
496.727	14.28
497.077	14.59
497.426	14.92
497.776	15.2
498.125	15.46
498.475	15.71
498.824	15.96
499.174	16.21
499.523	16.44
499.872	16.7
500.221	16.99
500.571	17.28
500.92	17.58
501.269	17.83
501.618	18.11
501.967	18.37
502.316	18.63
502.665	18.88
503.014	19.1
503.363	19.31
503.711	19.51
504.06	19.68
504.409	19.85
504.758	19.99
505.106	20.15
505.455	20.29
505.803	20.42
506.152	20.52
506.5	20.63
506.849	20.76
507.197	20.85
507.546	20.94
507.894	21.02
508.242	21.1
508.59	21.16
508.939	21.23
509.287	21.28
509.635	21.32
509.983	21.35
510.331	21.4
510.679	21.44
511.027	21.46
511.375	21.5
511.723	21.53
512.07	21.55
512.418	21.6
512.766	21.64
513.114	21.65
513.461	21.68
513.809	21.69
514.156	21.68
514.504	21.69
514.851	21.64
515.199	21.6
515.546	21.57
515.893	21.54
516.241	21.52
516.588	21.53
516.935	21.54
517.282	21.54
517.63	21.52
517.977	21.51
518.324	21.51
518.671	21.49
519.018	21.47
519.365	21.48
519.711	21.45
520.058	21.41
520.405	21.39
520.752	21.37
521.099	21.33
521.445	21.3
521.792	21.25
522.138	21.19
522.485	21.17
522.832	21.14
523.178	21.12
523.524	21.08
523.871	21.03
524.217	20.95
524.563	20.86
524.91	20.74
525.256	20.62
525.602	20.53
525.948	20.45
526.294	20.38
526.64	20.32
526.986	20.28
527.332	20.25
527.678	20.23
528.024	20.21
528.37	20.18
528.716	20.15
529.061	20.12
529.407	20.1
529.753	20.04
530.098	19.98
530.444	19.93
530.789	19.89
531.135	19.86
531.48	19.83
531.826	19.82
532.171	19.82
532.516	19.79
532.862	19.74
533.207	19.72
533.552	19.69
533.897	19.65
534.242	19.62
534.587	19.59
534.932	19.55
535.277	19.53
535.622	19.51
535.967	19.49
536.312	19.46
536.657	19.43
537.001	19.4
537.346	19.35
537.691	19.26
538.035	19.17
538.38	19.09
538.724	19.02
539.069	18.94
539.413	18.86
539.758	18.81
540.102	18.77
540.446	18.73
540.791	18.69
541.135	18.67
541.479	18.64
541.823	18.6
542.167	18.55
542.512	18.49
542.856	18.44
543.2	18.38
543.543	18.34
543.887	18.31
544.231	18.28
544.575	18.26
544.919	18.25
545.262	18.22
545.606	18.21
545.95	18.16
546.293	18.15
546.637	18.14
546.98	18.11
547.324	18.07
547.667	18.03
548.011	17.96
548.354	17.88
548.697	17.83
549.04	17.78
549.384	17.74
549.727	17.7
550.07	17.65
550.413	17.62
550.756	17.54
551.099	17.48
551.442	17.41
551.785	17.35
552.128	17.29
552.47	17.23
552.813	17.17
553.156	17.13
553.499	17.07
553.841	16.99
554.184	16.96
554.526	16.92
554.869	16.87
555.211	16.83
555.554	16.78
555.896	16.74
556.238	16.71
556.581	16.65
556.923	16.6
557.265	16.54
557.607	16.49
557.949	16.44
558.291	16.39
558.633	16.35
558.975	16.3
559.317	16.25
559.659	16.19
560.001	16.15
560.343	16.07
560.685	15.98
561.026	15.92
561.368	15.8
561.71	15.71
562.051	15.64
562.393	15.59
562.734	15.55
563.076	15.45
563.417	15.37
563.759	15.32
564.1	15.22
564.441	15.16
564.782	15.12
565.124	15.05
565.465	14.99
565.806	14.93
566.147	14.88
566.488	14.82
566.829	14.77
567.17	14.71
567.511	14.66
567.851	14.62
568.192	14.61
568.533	14.59
568.874	14.58
569.214	14.53
569.555	14.47
569.895	14.39
570.236	14.38
570.576	14.32
570.917	14.27
571.257	14.26
571.598	14.23
571.938	14.19
572.278	14.16
572.618	14.13
572.959	14.1
573.299	14.05
573.639	14
573.979	13.96
574.319	13.91
574.659	13.88
574.999	13.84
575.339	13.78
575.678	13.73
576.018	13.66
576.358	13.63
576.698	13.6
577.037	13.57
577.377	13.49
577.716	13.44
578.056	13.38
578.395	13.27
578.735	13.18
579.074	13.1
579.413	13.01
579.753	12.95
580.092	12.87
580.431	12.81
580.77	12.78
581.109	12.72
581.448	12.67
581.787	12.6
582.126	12.55
582.465	12.51
582.804	12.47
583.143	12.39
583.482	12.33
583.82	12.26
584.159	12.23
584.498	12.19
584.836	12.17
585.175	12.16
585.514	12.17
585.852	12.17
586.19	12.15
586.529	12.15
586.867	12.15
587.205	12.13
587.544	12.09
587.882	12.05
588.22	12.03
588.558	12.02
588.896	12.02
589.234	12.01
589.572	11.97
589.91	11.93
590.248	11.92
590.586	11.92
590.924	11.91
591.262	11.88
591.599	11.85
591.937	11.83
592.275	11.76
592.612	11.75
592.95	11.75
593.287	11.71
593.625	11.73
593.962	11.7
594.299	11.69
594.637	11.72
594.974	11.72
595.311	11.73
595.648	11.71
595.985	11.71
596.322	11.68
596.659	11.66
596.996	11.66
597.333	11.63
597.67	11.6
598.007	11.56
598.344	11.54
598.681	11.54
599.017	11.5
599.354	11.49
599.691	11.45
600.027	11.39
600.364	11.39
600.7	11.33
601.037	11.29
601.373	11.28
601.71	11.26
602.046	11.23
602.382	11.19
602.718	11.19
603.054	11.16
603.391	11.13
603.727	11.12
604.063	11.11
604.399	11.09
604.735	11.11
605.071	11.11
605.406	11.1
605.742	11.1
606.078	11.1
606.414	11.11
606.749	11.11
607.085	11.1
607.421	11.07
607.756	11.03
608.092	11.01
608.427	10.96
608.762	10.91
609.098	10.87
609.433	10.85
609.768	10.79
610.104	10.77
610.439	10.75
610.774	10.73
611.109	10.68
611.444	10.64
611.779	10.55
612.114	10.51
612.449	10.45
612.784	10.36
613.118	10.32
613.453	10.27
613.788	10.2
614.123	10.12
614.457	10.06
614.792	10.03
615.126	9.99
615.461	9.93
615.795	9.86
616.13	9.84
616.464	9.81
616.798	9.78
617.132	9.74
617.467	9.72
617.801	9.66
618.135	9.63
618.469	9.62
618.803	9.58
619.137	9.57
619.471	9.57
619.805	9.57
620.139	9.55
620.472	9.55
620.806	9.54
621.14	9.56
621.473	9.54
621.807	9.53
622.141	9.51
622.474	9.48
622.808	9.44
623.141	9.43
623.474	9.45
623.808	9.5
624.141	9.52
624.474	9.52
624.807	9.52
625.141	9.54
625.474	9.57
625.807	9.63
626.14	9.62
626.473	9.64
626.806	9.67
627.138	9.65
627.471	9.61
627.804	9.58
628.137	9.56
628.469	9.56
628.802	9.54
629.135	9.53
629.467	9.56
629.8	9.57
630.132	9.56
630.465	9.5
630.797	9.45
631.129	9.42
631.461	9.42
631.794	9.4
632.126	9.37
632.458	9.32
632.79	9.27
633.122	9.26
633.454	9.24
633.786	9.18
634.118	9.15
634.45	9.15
634.781	9.14
635.113	9.13
635.445	9.1
635.777	9.09
636.108	9.06
636.44	9.03
636.771	9.02
637.103	8.98
637.434	8.94
637.765	8.92
638.097	8.89
638.428	8.82
638.759	8.81
639.09	8.78
639.422	8.78
639.753	8.76
640.084	8.73
640.415	8.69
640.746	8.67
641.077	8.64
641.407	8.57
641.738	8.53
642.069	8.48
642.4	8.48
642.73	8.47
643.061	8.46
643.392	8.5
643.722	8.52
644.053	8.46
644.383	8.48
644.713	8.45
645.044	8.41
645.374	8.39
645.704	8.37
646.034	8.4
646.365	8.37
646.695	8.37
647.025	8.36
647.355	8.37
647.685	8.4
648.015	8.45
648.344	8.52
648.674	8.57
649.004	8.61
649.334	8.62
649.663	8.64
649.993	8.66
650.323	8.6
650.652	8.59
650.982	8.64
651.311	8.62
651.64	8.64
651.97	8.65
652.299	8.67
652.628	8.66
652.958	8.64
653.287	8.68
653.616	8.64
653.945	8.63
654.274	8.57
654.603	8.52
654.932	8.49
655.261	8.48
655.589	8.44
655.918	8.48
656.247	8.53
656.576	8.59
656.904	8.62
657.233	8.7
657.561	8.74
657.89	8.77
658.218	8.79
658.547	8.81
658.875	8.84
659.203	8.85
659.532	8.89
659.86	8.87
660.188	8.87
660.516	8.9
660.844	8.84
661.172	8.86
661.5	8.88
661.828	8.84
662.156	8.8
662.484	8.79
662.811	8.73
663.139	8.67
663.467	8.56
663.794	8.45
664.122	8.31
664.45	8.23
664.777	8.14
665.104	8.11
665.432	8.01
665.759	7.96
666.086	7.96
666.414	7.99
666.741	8.02
667.068	8.01
667.395	7.97
667.722	8.03
668.049	8.06
668.376	8.05
668.703	8.09
669.03	8.08
669.357	8.07
669.683	8.04
670.01	8.02
670.337	8.06
670.663	8.11
670.99	8.11
671.317	8.09
671.643	8.15
671.969	8.15
672.296	8.18
672.622	8.2
672.948	8.14
673.275	8.04
673.601	7.97
673.927	7.91
674.253	7.94
674.579	7.92
674.905	7.89
675.231	7.88
675.557	7.86
675.883	7.89
676.209	7.97
676.534	8.04
676.86	8.02
677.186	8.12
677.511	8.21
677.837	8.24
678.162	8.3
678.488	8.32
678.813	8.31
679.139	8.35
679.464	8.37
679.789	8.41
680.114	8.47
680.44	8.47
680.765	8.51
681.09	8.53
681.415	8.5
681.74	8.51
682.065	8.54
682.39	8.49
682.714	8.39
683.039	8.34
683.364	8.31
683.689	8.34
684.013	8.28
684.338	8.19
684.662	8.22
684.987	8.24
685.311	8.2
685.636	8.18
685.96	8.16
686.284	8.07
686.608	8.02
686.933	7.93
687.257	7.89
687.581	7.87
687.905	7.87
688.229	7.93
688.553	7.99
688.877	7.95
689.201	7.95
689.524	7.92
689.848	7.87
690.172	7.89
690.496	7.84
690.819	7.81
691.143	7.78
691.466	7.71
691.79	7.59
692.113	7.55
692.436	7.56
692.76	7.51
693.083	7.54
693.406	7.58
693.729	7.61
694.053	7.67
694.376	7.66
694.699	7.67
695.022	7.75
695.344	7.77
695.667	7.91
695.99	8.1
696.313	8.29
696.636	8.41
696.958	8.47
697.281	8.5
697.604	8.47
697.926	8.49
698.249	8.54
698.571	8.55
698.893	8.54
699.216	8.44
699.538	8.41
699.86	8.38
700.182	8.32
700.504	8.33
700.827	8.36
701.149	8.38
701.471	8.34
701.793	8.2
702.114	8.09
702.436	7.96
702.758	7.77
703.08	7.57
703.401	7.34
703.723	7.14
704.045	7.03
704.366	7.07
704.688	7
705.009	6.91
705.331	6.85
705.652	6.87
705.973	6.97
706.294	6.95
706.616	6.95
706.937	6.92
707.258	6.91
707.579	6.84
707.9	6.89
708.221	6.95
708.542	6.94
708.863	6.99
709.183	6.99
709.504	7
709.825	7.09
710.145	7.2
710.466	7.24
710.787	7.21
711.107	7.13
711.427	7.14
711.748	7.16
712.068	7.18
712.388	7.22
712.709	7.25
713.029	7.34
713.349	7.32
713.669	7.46
713.989	7.55
714.309	7.64
714.629	7.61
714.949	7.56
715.269	7.62
715.589	7.6
715.908	7.64
716.228	7.7
716.548	7.72
716.867	7.75
717.187	7.75
717.506	7.82
717.826	7.84
718.145	7.91
718.465	8
718.784	8.2
719.103	8.18
719.422	8.24
719.741	8.3
720.061	8.52
720.38	8.58
720.699	8.59
721.018	8.67
721.336	8.7
721.655	8.87
721.974	9.04
722.293	9.25
722.612	9.38
722.93	9.47
723.249	9.52
723.567	9.65
723.886	9.78
724.204	9.97
724.523	10.14
724.841	10.28
725.159	10.35
725.477	10.39
725.796	10.62
726.114	10.84
726.432	11.02
726.75	11.04
727.068	11.04
727.386	11.12
727.704	11.17
728.022	11.3
728.339	11.48
728.657	11.56
728.975	11.65
729.292	11.71
729.61	11.86
729.928	11.94
730.245	11.99
730.562	12.09
730.88	12.19
731.197	12.31
731.514	12.41
731.832	12.66
732.149	12.83
732.466	12.92
732.783	13.01
733.1	13.16
733.417	13.38
733.734	13.64
734.051	13.84
734.368	14.05
734.684	14.21
735.001	14.13
735.318	14.17
735.634	14.3
735.951	14.49
736.268	14.63
736.584	14.93
736.9	15.18
737.217	15.34
737.533	15.38
737.849	15.47
738.166	15.72
738.482	15.76
738.798	15.83
739.114	15.95
739.43	16.08
739.746	16.06
740.062	16.11
740.378	16.19
740.693	16.22
741.009	16.33
741.325	16.55
741.641	16.89
741.956	16.98
742.272	17.08
742.587	17.22
742.903	17.35
743.218	17.48
743.533	17.57
743.849	17.77
744.164	17.92
744.479	18.21
744.794	18.18
745.109	18.18
745.424	18.23
745.739	18.3
746.054	18.33
746.369	18.54
746.684	18.55
746.999	18.57
747.313	18.73
747.628	18.69
747.943	18.79
748.257	18.83
748.572	19.04
748.886	19.18
749.201	19.16
749.515	19.13
749.829	19.16
750.144	19.37
750.458	19.5
750.772	19.63
751.086	19.65
751.4	19.76
751.714	19.95
752.028	20.2
752.342	20.29
752.656	20.4
752.97	20.37
753.284	20.53
753.597	20.69
753.911	20.82
754.225	20.95
754.538	20.86
754.852	20.87
755.165	20.93
755.478	20.95
755.792	21.1
756.105	21.19
756.418	21.34
756.731	21.4
757.045	21.48
757.358	21.61
757.671	21.72
757.984	21.9
758.297	21.92
758.609	21.95
758.922	22.03
759.235	22.1
759.548	22.11
759.86	22.08
760.173	21.83
760.486	21.59
760.798	21.4
761.111	21.24
761.423	21.2
761.735	21.17
762.048	21.07
762.36	20.99
762.672	20.99
762.984	20.99
763.296	20.88
763.608	20.92
763.92	20.95
764.232	21
764.544	21.02
764.856	21.16
765.168	21.2
765.48	21.33
765.791	21.52
766.103	21.71
766.414	21.85
766.726	22.21
767.037	22.56
767.349	23.03
767.66	23.53
767.972	24.02
768.283	24.55
768.594	25.2
768.905	25.68
769.216	26.02
769.527	26.3
769.838	26.7
770.149	27.01
770.46	27.34
770.771	27.62
771.082	27.92
771.393	28.1
771.703	28.31
772.014	28.36
772.324	28.6
772.635	28.96
772.945	29.26
773.256	29.38
773.566	29.58
773.877	29.74
774.187	29.9
774.497	29.84
774.807	29.85
775.117	29.81
775.427	30.2
775.737	30.51
776.047	30.54
776.357	30.7
776.667	30.72
776.977	30.81
777.287	30.85
777.596	30.79
777.906	30.64
778.216	30.64
778.525	30.74
778.835	30.69
779.144	30.65
779.453	30.74
779.763	30.94
780.072	31.25
780.381	31.29
780.69	31.52
781	31.61
781.309	31.55
781.618	31.8
781.927	31.73
782.235	31.77
782.544	32.12
782.853	32.46
783.162	32.44
783.471	32.62
783.779	32.65
784.088	32.74
784.396	32.92
784.705	33.05
785.013	32.77
785.322	32.48
785.63	32.28
785.938	32.06
786.246	31.83
786.554	31.62
786.863	31.76
787.171	31.64
787.479	31.68
787.787	31.97
788.094	31.82
788.402	31.71
788.71	31.54
789.018	31.25
789.326	30.97
789.633	31.38
789.941	31.4
790.248	31.34
790.556	31.49
790.863	31.68
791.171	31.76
791.478	32.25
791.785	32.72
792.092	33.02
792.399	33.28
792.707	33.81
793.014	34.03
793.321	33.99
793.628	34.09
793.934	34.14
794.241	33.91
794.548	33.84
794.855	33.75
795.161	33.94
795.468	34.23
795.775	34.51
796.081	34.57
796.388	34.69
796.694	34.94
797	34.93
797.307	35.36
797.613	35.47
797.919	35.5
798.225	35.33
798.531	35.62
798.837	35.7
799.143	35.69
799.449	35.75
799.755	35.89
800.061	36.28
800.367	36.65
800.672	36.85
800.978	37.04
801.284	37.3
801.589	37.51
801.895	37.58
802.2	37.56
802.506	37.29
802.811	37.22
803.116	37.17
803.421	37.23
803.727	37.12
804.032	37.21
804.337	37.53
804.642	37.92
804.947	37.88
805.252	37.97
805.556	37.97
805.861	38.32
806.166	38.45
806.471	38.19
806.775	38.04
807.08	38.1
807.384	38.46
807.689	38.58
807.993	38.6
808.298	38.67
808.602	38.88
808.906	39.15
809.211	39.49
809.515	39.5
809.819	39.6
810.123	39.48
810.427	39.72
810.731	39.89
811.035	40.16
811.338	40.14
811.642	40.59
811.946	40.8
812.25	40.54
812.553	40.78
812.857	41.04
813.16	41.26
813.464	41.29
813.767	41.03
814.07	41.22
814.374	41.56
814.677	41.49
814.98	41.69
815.283	41.42
815.586	41.19
815.889	41.2
816.192	41.28
816.495	41.1
816.798	40.42
817.101	39.56
817.404	38.45
817.706	38.03
818.009	36.99
818.312	36.15
818.614	35
818.917	33.14
819.219	30.89
819.521	28.56
819.824	26.51
820.126	25.04
820.428	23.84
820.73	22.95
821.032	22.43
821.334	21.94
821.636	21.7
821.938	21.52
822.24	21.36
822.542	21.2
822.844	21.11
823.145	21.12
823.447	21.06
823.749	21.03
824.05	20.81
824.352	20.64
824.653	20.51
824.955	20.46
825.256	20.46
825.557	20.64
825.858	20.87
826.16	21.3
826.461	21.85
826.762	22.46
827.063	23
827.364	23.53
827.665	24.12
827.965	24.66
828.266	25.1
828.567	25.54
828.868	26.03
829.168	26.32
829.469	26.5
829.769	26.81
830.07	27.2
830.37	27.71
830.67	28.53
830.971	29.4
831.271	30.04
831.571	30.55
831.871	30.87
832.171	31.46
832.471	31.68
832.771	31.66
833.071	31.8
833.371	32.29
833.671	32.46
833.971	32.73
834.27	32.65
834.57	32.57
834.869	32.55
835.169	32.57
835.468	32.81
835.768	32.94
836.067	33.29
836.367	33.51
836.666	34.21
836.965	34.45
837.264	34.87
837.563	35.8
837.862	36.83
838.161	37.9
838.46	39.02
838.759	40.08
839.058	41.01
839.356	41.59
839.655	42.13
839.954	43.05
840.252	43.57
840.551	44.6
840.849	45.29
841.148	46.06
841.446	46.38
841.744	46.44
842.043	47.16
842.341	47.19
842.639	48.15
842.937	48.02
843.235	49.35
843.533	50.25
843.831	50.87
844.129	52.39
844.427	52.99
844.724	53.22
845.022	54.61
845.32	55.88
845.617	57.15
845.915	58.51
846.212	59.15
846.51	59.48
846.807	59.61
847.104	59.88
847.402	60.48
847.699	60.56
847.996	61.46
848.293	61.28
848.59	61.81
848.887	61.78
849.184	62.16
849.481	61.59
849.778	60.77
850.074	61.37
850.371	61.29
850.668	61.81
850.964	62.75
851.261	63.12
851.557	63.02
851.854	63.31
852.15	62.66
852.446	62.95
852.743	62.77
853.039	62.73
853.335	63.79
853.631	64.3
853.927	65
854.223	64.94
854.519	64.69
854.815	63.87
855.111	61.92
855.406	61.78
855.702	61.92
855.998	62.72
856.293	62.33
856.589	61.93
856.884	62.28
857.18	62.36
857.475	61.64
857.77	62.63
858.066	61.83
858.361	61.81
858.656	61.81
858.951	61.58
859.246	62.29
859.541	62.34
859.836	61.82
860.131	61.92
860.426	61.68
860.72	62.52
861.015	63.48
861.31	64.92
861.604	65.64
861.899	66.04
862.193	65.83
862.487	65.66
862.782	66.22
863.076	65.85
863.37	65.33
863.664	66.03
863.959	65.28
864.253	65.76
864.547	65.35
864.841	64.66
865.135	64.77
865.428	63.95
865.722	63.54
866.016	63.79
866.31	64.19
866.603	63.89
866.897	64.23
867.19	63.87
867.484	63.81
867.777	63.51
868.07	63.44
868.364	64.31
868.657	64.4
868.95	64
869.243	63.57
869.536	64.13
869.829	63.42
870.122	62.8
870.415	62.01
870.708	61.43
871	60.61
871.293	60.36
871.586	60.57
871.878	60.33
872.171	59.98
872.463	59.66
872.756	59.39
873.048	58.86
873.341	58.86
873.633	58.6
873.925	58.38
874.217	57.88
874.509	56.43
874.801	55.98
875.093	55.51
875.385	55.75
875.677	54.19
875.969	53.69
