Data from pcis_p_m3_p5_Reflection_3.txt Node
Date: Wed Jul 12 17:48:36 ART 2017
User: rodoncho
Spectrometer: USB2E3644
Trigger mode: 4
Integration Time (sec): 6.000000E-2
Scans to average: 10
Electric dark correction enabled: true
Nonlinearity correction enabled: false
Boxcar width: 10
XAxis mode: Wavelengths
Number of Pixels in Spectrum: 2048
>>>>>Begin Spectral Data<<<<<
178.315	263.41
178.696	375
179.076	431.51
179.457	2276.47
179.838	-715.38
180.218	-245.45
180.599	-16.98
180.979	172.73
181.36	103.28
181.74	188.37
182.121	-1012.5
182.501	140.13
182.881	134.87
183.262	124.26
183.642	184.62
184.022	17.65
184.402	120.78
184.783	102.16
185.163	115.27
185.543	114.55
185.923	114.94
186.303	95.73
186.683	100.21
187.063	110.36
187.443	121.31
187.823	115.13
188.203	110.11
188.583	108.38
188.963	104.67
189.343	102.57
189.723	102.04
190.102	108.54
190.482	116.47
190.862	116.32
191.242	115.07
191.621	113.45
192.001	111.14
192.38	111.74
192.76	113.76
193.14	109.81
193.519	109.37
193.898	109.83
194.278	112.95
194.657	112.6
195.037	111.59
195.416	110.42
195.795	113.07
196.175	116.73
196.554	116.11
196.933	116.3
197.312	117.9
197.692	120.57
198.071	120.08
198.45	116.59
198.829	116.35
199.208	115.93
199.587	117.71
199.966	118.4
200.345	117.24
200.724	116.13
201.103	119.72
201.482	121.21
201.86	120.8
202.239	120.45
202.618	122.61
202.997	122.01
203.375	122.44
203.754	122.28
204.133	120.67
204.511	120.02
204.89	119.12
205.269	119.46
205.647	118.5
206.026	117.33
206.404	115.83
206.782	112.79
207.161	112.38
207.539	113.8
207.918	112.78
208.296	113.38
208.674	113.86
209.052	113.19
209.431	112.66
209.809	111.84
210.187	112.73
210.565	111.82
210.943	112.62
211.321	113.61
211.699	114.09
212.077	114.49
212.455	113.9
212.833	112.71
213.211	111.34
213.589	111
213.967	111.88
214.345	112.39
214.722	114.63
215.1	114.92
215.478	113.78
215.855	115.11
216.233	115.23
216.611	115.85
216.988	115.24
217.366	116.01
217.743	116.69
218.121	116.96
218.498	117.55
218.876	118.05
219.253	117.6
219.631	115.18
220.008	115.2
220.385	114.42
220.762	115.83
221.14	118.53
221.517	120.26
221.894	121.15
222.271	122.3
222.648	121.64
223.025	120.43
223.402	119.29
223.78	117.91
224.157	118.13
224.533	117.73
224.91	117.24
225.287	116.55
225.664	116.64
226.041	116.64
226.418	116.13
226.795	115.78
227.171	115.44
227.548	116.31
227.925	114.62
228.301	115.38
228.678	115.4
229.055	112.68
229.431	111.11
229.808	109.84
230.184	110.67
230.561	111.47
230.937	113.75
231.313	114.97
231.69	115.17
232.066	114.41
232.442	113.82
232.819	115.3
233.195	115.27
233.571	114.92
233.947	114.77
234.323	115.37
234.699	116.6
235.075	117.5
235.451	118.38
235.827	119.69
236.203	122.13
236.579	125.48
236.955	128.43
237.331	129.87
237.707	134.04
238.083	136.83
238.459	141.29
238.834	145.97
239.21	152.25
239.586	158.78
239.961	163.28
240.337	164.93
240.713	165.68
241.088	167.14
241.464	171.58
241.839	175.86
242.215	182.37
242.59	192.48
242.965	215.84
243.341	264.91
243.716	343.15
244.091	465.05
244.467	614.91
244.842	993.93
245.217	2030.1
245.592	3900
245.967	10871.05
246.343	4772.09
246.718	3236.72
247.093	2367.05
247.468	2423.35
247.843	3829.91
248.218	-6147.76
248.593	-1693.12
248.967	-987.12
249.342	-788.97
249.717	-780.88
250.092	-864.1
250.467	-989.38
250.841	-1812.61
251.216	3675.63
251.591	1043.29
251.965	628.79
252.34	499.56
252.714	410.82
253.089	377.25
253.463	369.49
253.838	374.4
254.212	402.63
254.587	430.91
254.961	515.59
255.335	717.53
255.71	2286.21
256.084	-1160.41
256.458	-412.82
256.832	-252.25
257.206	-206.61
257.581	-180.39
257.955	-165.41
258.329	-157.18
258.703	-146.12
259.077	-135.09
259.451	-131.39
259.825	-124.94
260.199	-119.25
260.572	-115.28
260.946	-110.5
261.32	-108.59
261.694	-105.3
262.068	-103.08
262.441	-101.86
262.815	-100.21
263.189	-101.62
263.562	-108.28
263.936	-124.35
264.309	-155.22
264.683	-196.39
265.056	-218.76
265.43	-229.63
265.803	-225.6
266.176	-213.25
266.55	-209.87
266.923	-206.74
267.296	-189.55
267.67	-177.69
268.043	-165.47
268.416	-148.21
268.789	-132.22
269.162	-116.86
269.535	-107.66
269.908	-101.68
270.281	-97.46
270.654	-97.34
271.027	-97.27
271.4	-100.27
271.773	-101.84
272.146	-99.46
272.519	-95.49
272.891	-92.85
273.264	-92.59
273.637	-90.72
274.01	-91.61
274.382	-89.35
274.755	-88.35
275.127	-88.04
275.5	-87.96
275.872	-87.76
276.245	-88.53
276.617	-90.52
276.99	-95.05
277.362	-98.38
277.734	-98.53
278.107	-96.36
278.479	-91.07
278.851	-86.83
279.223	-82.04
279.596	-78.73
279.968	-77.28
280.34	-76.86
280.712	-74.39
281.084	-69.93
281.456	-65.22
281.828	-60.41
282.2	-56.65
282.572	-52.47
282.944	-49.77
283.315	-48.4
283.687	-46.55
284.059	-45.65
284.431	-44.55
284.802	-43.47
285.174	-42.42
285.546	-41.14
285.917	-41.41
286.289	-40.66
286.66	-40.04
287.032	-39.88
287.403	-39.43
287.775	-39.3
288.146	-39.37
288.518	-39.34
288.889	-39.06
289.26	-40.06
289.632	-40.95
290.003	-42.21
290.374	-43.88
290.745	-44.25
291.116	-43.21
291.487	-42.09
291.858	-40.79
292.229	-39.86
292.6	-38.39
292.971	-37.09
293.342	-35.29
293.713	-32.84
294.084	-31.55
294.455	-31
294.826	-30
295.196	-30.08
295.567	-29.33
295.938	-28.13
296.308	-28.41
296.679	-28.02
297.05	-27.07
297.42	-25.89
297.791	-24.53
298.161	-23.54
298.532	-23.43
298.902	-23.12
299.272	-22.74
299.643	-22.56
300.013	-22.3
300.383	-21.67
300.754	-21.05
301.124	-21.02
301.494	-21.05
301.864	-21.42
302.234	-21.32
302.604	-21.42
302.974	-20.81
303.344	-20.81
303.714	-21.23
304.084	-20.21
304.454	-19.91
304.824	-19.23
305.194	-19.05
305.563	-18.47
305.933	-17.59
306.303	-16.25
306.673	-15.61
307.042	-15.23
307.412	-14.46
307.781	-13.58
308.151	-12.7
308.521	-12.38
308.89	-11.96
309.259	-11.59
309.629	-11.27
309.998	-10.95
310.368	-10.64
310.737	-10.5
311.106	-10.11
311.475	-9.59
311.845	-9.46
312.214	-9.03
312.583	-8.87
312.952	-8.48
313.321	-8.24
313.69	-8.13
314.059	-8.62
314.428	-8.75
314.797	-8.87
315.166	-9.53
315.535	-9.85
315.904	-10.34
316.272	-10.63
316.641	-10.8
317.01	-10.89
317.379	-10.9
317.747	-10.79
318.116	-10.23
318.484	-9.74
318.853	-9.25
319.221	-8.67
319.59	-8.38
319.958	-8.05
320.327	-7.72
320.695	-7.58
321.063	-7.61
321.432	-7.08
321.8	-6.36
322.168	-5.67
322.536	-4.94
322.905	-3.91
323.273	-3.58
323.641	-3.24
324.009	-2.96
324.377	-2.57
324.745	-2.16
325.113	-1.79
325.481	-1.28
325.849	-0.9
326.216	-0.61
326.584	-0.26
326.952	-0.06
327.32	0.33
327.687	0.68
328.055	1.11
328.423	1.56
328.79	1.89
329.158	1.94
329.525	2.32
329.893	2.68
330.26	2.8
330.628	2.72
330.995	2.97
331.362	3.3
331.73	3.74
332.097	4.14
332.464	4.35
332.831	4.53
333.199	4.92
333.566	5
333.933	5
334.3	5.06
334.667	5.36
335.034	5.53
335.401	5.61
335.768	5.62
336.135	5.66
336.502	5.85
336.868	6.03
337.235	6.21
337.602	6.47
337.969	6.73
338.335	7.18
338.702	7.55
339.069	7.78
339.435	8.05
339.802	8.13
340.168	8.33
340.535	8.77
340.901	8.84
341.267	9.01
341.634	9.57
342	9.99
342.366	10.13
342.733	10.33
343.099	10.6
343.465	10.91
343.831	11.22
344.197	11.43
344.563	11.74
344.929	12
345.295	12.2
345.661	12.59
346.027	12.83
346.393	12.95
346.759	13.05
347.125	13.22
347.491	13.42
347.856	13.62
348.222	13.63
348.588	13.82
348.953	14.04
349.319	14.1
349.684	14.1
350.05	14.29
350.415	14.56
350.781	14.76
351.146	14.86
351.512	14.99
351.877	15.24
352.242	15.28
352.608	15.33
352.973	15.47
353.338	15.47
353.703	15.49
354.068	15.7
354.433	15.91
354.798	16.1
355.164	16.26
355.528	16.33
355.893	16.44
356.258	16.52
356.623	16.53
356.988	16.62
357.353	16.86
357.718	16.94
358.082	17.07
358.447	17.11
358.812	17.21
359.176	17.36
359.541	17.43
359.905	17.53
360.27	17.61
360.634	17.6
360.999	17.69
361.363	17.87
361.728	17.93
362.092	17.93
362.456	17.86
362.821	17.93
363.185	18.05
363.549	18.1
363.913	18.21
364.277	18.31
364.641	18.35
365.005	18.33
365.369	18.42
365.733	18.46
366.097	18.6
366.461	18.7
366.825	18.71
367.189	18.66
367.553	18.77
367.916	18.92
368.28	19.1
368.644	19.21
369.007	19.23
369.371	19.28
369.734	19.37
370.098	19.55
370.461	19.64
370.825	19.73
371.188	19.89
371.552	19.99
371.915	20.13
372.278	20.27
372.642	20.41
373.005	20.56
373.368	20.64
373.731	20.66
374.094	20.72
374.457	20.81
374.82	20.91
375.183	20.94
375.546	20.98
375.909	21.04
376.272	21
376.635	21.02
376.998	21.14
377.361	21.1
377.723	21.06
378.086	21.14
378.449	21.2
378.811	21.21
379.174	21.24
379.537	21.25
379.899	21.29
380.262	21.34
380.624	21.31
380.987	21.32
381.349	21.37
381.711	21.38
382.074	21.42
382.436	21.46
382.798	21.49
383.16	21.44
383.522	21.39
383.884	21.46
384.247	21.55
384.609	21.54
384.971	21.63
385.333	21.75
385.695	21.72
386.056	21.73
386.418	21.69
386.78	21.74
387.142	21.75
387.504	21.75
387.865	21.73
388.227	21.77
388.589	21.75
388.95	21.73
389.312	21.71
389.673	21.7
390.035	21.65
390.396	21.65
390.758	21.65
391.119	21.68
391.48	21.66
391.842	21.62
392.203	21.58
392.564	21.56
392.925	21.5
393.286	21.46
393.648	21.43
394.009	21.47
394.37	21.4
394.731	21.39
395.092	21.35
395.452	21.32
395.813	21.3
396.174	21.31
396.535	21.27
396.896	21.25
397.257	21.24
397.617	21.25
397.978	21.26
398.338	21.29
398.699	21.25
399.06	21.23
399.42	21.21
399.781	21.17
400.141	21.09
400.501	21.05
400.862	21.04
401.222	21
401.582	20.94
401.943	20.92
402.303	20.91
402.663	20.87
403.023	20.84
403.383	20.8
403.743	20.74
404.103	20.79
404.463	20.8
404.823	20.73
405.183	20.7
405.543	20.66
405.903	20.57
406.262	20.55
406.622	20.5
406.982	20.5
407.342	20.49
407.701	20.51
408.061	20.49
408.42	20.45
408.78	20.39
409.139	20.37
409.499	20.33
409.858	20.29
410.217	20.27
410.577	20.22
410.936	20.15
411.295	20.12
411.655	20.01
412.014	19.91
412.373	19.84
412.732	19.75
413.091	19.66
413.45	19.61
413.809	19.53
414.168	19.41
414.527	19.26
414.886	19.14
415.245	19.05
415.603	18.94
415.962	18.83
416.321	18.74
416.679	18.65
417.038	18.55
417.397	18.39
417.755	18.28
418.114	18.18
418.472	18.12
418.831	18.05
419.189	17.98
419.547	17.9
419.906	17.84
420.264	17.75
420.622	17.68
420.981	17.61
421.339	17.52
421.697	17.46
422.055	17.42
422.413	17.38
422.771	17.32
423.129	17.27
423.487	17.24
423.845	17.2
424.203	17.16
424.56	17.12
424.918	17.11
425.276	17.11
425.634	17.1
425.991	17.06
426.349	17.01
426.707	16.98
427.064	16.96
427.422	16.91
427.779	16.91
428.137	16.87
428.494	16.83
428.851	16.83
429.209	16.77
429.566	16.69
429.923	16.62
430.28	16.55
430.637	16.5
430.995	16.43
431.352	16.37
431.709	16.34
432.066	16.32
432.423	16.26
432.78	16.18
433.137	16.11
433.493	16.05
433.85	16.04
434.207	15.97
434.564	15.91
434.92	15.87
435.277	15.78
435.634	15.71
435.99	15.63
436.347	15.53
436.703	15.48
437.06	15.43
437.416	15.37
437.773	15.34
438.129	15.29
438.485	15.28
438.841	15.24
439.198	15.22
439.554	15.16
439.91	15.14
440.266	15.08
440.622	15.04
440.978	14.99
441.334	14.89
441.69	14.82
442.046	14.74
442.402	14.64
442.758	14.56
443.113	14.49
443.469	14.42
443.825	14.38
444.181	14.31
444.536	14.26
444.892	14.22
445.247	14.16
445.603	14.1
445.958	14.04
446.314	13.99
446.669	13.95
447.025	13.9
447.38	13.85
447.735	13.82
448.09	13.79
448.446	13.75
448.801	13.72
449.156	13.68
449.511	13.64
449.866	13.63
450.221	13.63
450.576	13.59
450.931	13.56
451.286	13.5
451.641	13.46
451.995	13.41
452.35	13.36
452.705	13.33
453.06	13.28
453.414	13.24
453.769	13.2
454.123	13.11
454.478	13.06
454.832	12.99
455.187	12.89
455.541	12.78
455.896	12.68
456.25	12.58
456.604	12.49
456.958	12.42
457.313	12.33
457.667	12.28
458.021	12.22
458.375	12.2
458.729	12.17
459.083	12.14
459.437	12.11
459.791	12.05
460.145	12.03
460.499	12
460.852	11.97
461.206	11.93
461.56	11.91
461.914	11.89
462.267	11.86
462.621	11.86
462.974	11.85
463.328	11.83
463.681	11.82
464.035	11.81
464.388	11.8
464.742	11.79
465.095	11.75
465.448	11.73
465.801	11.68
466.155	11.64
466.508	11.62
466.861	11.55
467.214	11.52
467.567	11.49
467.92	11.43
468.273	11.4
468.626	11.36
468.979	11.3
469.332	11.24
469.684	11.18
470.037	11.13
470.39	11.09
470.743	11.05
471.095	11.02
471.448	11.01
471.8	10.97
472.153	10.95
472.505	10.93
472.858	10.89
473.21	10.84
473.562	10.8
473.915	10.75
474.267	10.73
474.619	10.72
474.971	10.66
475.324	10.62
475.676	10.59
476.028	10.56
476.38	10.54
476.732	10.52
477.084	10.49
477.436	10.46
477.787	10.41
478.139	10.37
478.491	10.32
478.843	10.26
479.195	10.16
479.546	10.03
479.898	9.88
480.249	9.73
480.601	9.62
480.952	9.53
481.304	9.48
481.655	9.44
482.007	9.4
482.358	9.38
482.709	9.37
483.061	9.33
483.412	9.3
483.763	9.26
484.114	9.21
484.465	9.17
484.816	9.13
485.167	9.11
485.518	9.08
485.869	9.06
486.22	9.05
486.571	9.06
486.922	9.06
487.272	9.06
487.623	9.05
487.974	9.03
488.324	9.02
488.675	8.99
489.025	8.97
489.376	8.96
489.726	8.94
490.077	8.93
490.427	8.93
490.778	8.93
491.128	8.94
491.478	8.98
491.828	8.99
492.179	9.02
492.529	9.05
492.879	9.05
493.229	9.04
493.579	9.02
493.929	8.99
494.279	8.99
494.629	8.99
494.979	9
495.328	9.01
495.678	9.05
496.028	9.08
496.378	9.09
496.727	9.09
497.077	9.07
497.426	9.05
497.776	9.04
498.125	9.03
498.475	9.02
498.824	8.99
499.174	8.99
499.523	8.96
499.872	8.93
500.221	8.94
500.571	8.94
500.92	8.93
501.269	8.93
501.618	8.92
501.967	8.91
502.316	8.9
502.665	8.9
503.014	8.89
503.363	8.88
503.711	8.87
504.06	8.85
504.409	8.83
504.758	8.79
505.106	8.78
505.455	8.77
505.803	8.73
506.152	8.71
506.5	8.69
506.849	8.68
507.197	8.68
507.546	8.67
507.894	8.66
508.242	8.65
508.59	8.63
508.939	8.62
509.287	8.61
509.635	8.6
509.983	8.58
510.331	8.58
510.679	8.57
511.027	8.57
511.375	8.57
511.723	8.58
512.07	8.6
512.418	8.61
512.766	8.6
513.114	8.63
513.461	8.64
513.809	8.63
514.156	8.62
514.504	8.62
514.851	8.6
515.199	8.59
515.546	8.57
515.893	8.56
516.241	8.56
516.588	8.55
516.935	8.54
517.282	8.56
517.63	8.55
517.977	8.54
518.324	8.55
518.671	8.57
519.018	8.56
519.365	8.55
519.711	8.54
520.058	8.54
520.405	8.52
520.752	8.52
521.099	8.53
521.445	8.55
521.792	8.52
522.138	8.51
522.485	8.5
522.832	8.49
523.178	8.5
523.524	8.51
523.871	8.51
524.217	8.51
524.563	8.44
524.91	8.38
525.256	8.31
525.602	8.24
525.948	8.2
526.294	8.18
526.64	8.17
526.986	8.16
527.332	8.16
527.678	8.16
528.024	8.16
528.37	8.17
528.716	8.15
529.061	8.16
529.407	8.16
529.753	8.15
530.098	8.13
530.444	8.12
530.789	8.12
531.135	8.11
531.48	8.12
531.826	8.15
532.171	8.19
532.516	8.23
532.862	8.27
533.207	8.3
533.552	8.31
533.897	8.34
534.242	8.35
534.587	8.36
534.932	8.36
535.277	8.35
535.622	8.35
535.967	8.37
536.312	8.37
536.657	8.39
537.001	8.41
537.346	8.43
537.691	8.45
538.035	8.42
538.38	8.42
538.724	8.38
539.069	8.36
539.413	8.36
539.758	8.36
540.102	8.38
540.446	8.39
540.791	8.42
541.135	8.43
541.479	8.44
541.823	8.44
542.167	8.44
542.512	8.46
542.856	8.45
543.2	8.44
543.543	8.44
543.887	8.44
544.231	8.46
544.575	8.48
544.919	8.5
545.262	8.54
545.606	8.57
545.95	8.62
546.293	8.67
546.637	8.69
546.98	8.7
547.324	8.7
547.667	8.73
548.011	8.74
548.354	8.75
548.697	8.78
549.04	8.81
549.384	8.84
549.727	8.86
550.07	8.89
550.413	8.92
550.756	8.96
551.099	8.99
551.442	9.02
551.785	9.04
552.128	9.07
552.47	9.09
552.813	9.12
553.156	9.13
553.499	9.14
553.841	9.16
554.184	9.18
554.526	9.24
554.869	9.26
555.211	9.26
555.554	9.29
555.896	9.26
556.238	9.28
556.581	9.3
556.923	9.34
557.265	9.39
557.607	9.42
557.949	9.45
558.291	9.46
558.633	9.5
558.975	9.54
559.317	9.57
559.659	9.59
560.001	9.63
560.343	9.68
560.685	9.72
561.026	9.77
561.368	9.81
561.71	9.8
562.051	9.84
562.393	9.92
562.734	9.97
563.076	10.06
563.417	10.12
563.759	10.21
564.1	10.27
564.441	10.33
564.782	10.41
565.124	10.48
565.465	10.58
565.806	10.65
566.147	10.75
566.488	10.85
566.829	10.94
567.17	10.99
567.511	11.06
567.851	11.15
568.192	11.23
568.533	11.34
568.874	11.45
569.214	11.55
569.555	11.64
569.895	11.73
570.236	11.85
570.576	11.96
570.917	12.06
571.257	12.17
571.598	12.28
571.938	12.41
572.278	12.55
572.618	12.67
572.959	12.79
573.299	12.88
573.639	12.97
573.979	13.1
574.319	13.25
574.659	13.37
574.999	13.49
575.339	13.63
575.678	13.76
576.018	13.88
576.358	14.02
576.698	14.18
577.037	14.32
577.377	14.49
577.716	14.63
578.056	14.79
578.395	14.94
578.735	15.08
579.074	15.22
579.413	15.38
579.753	15.56
580.092	15.78
580.431	15.99
580.77	16.22
581.109	16.41
581.448	16.62
581.787	16.82
582.126	16.99
582.465	17.2
582.804	17.4
583.143	17.64
583.482	17.9
583.82	18.1
584.159	18.34
584.498	18.52
584.836	18.76
585.175	18.99
585.514	19.23
585.852	19.52
586.19	19.81
586.529	20.03
586.867	20.27
587.205	20.49
587.544	20.74
587.882	20.95
588.22	21.19
588.558	21.38
588.896	21.62
589.234	21.91
589.572	22.12
589.91	22.37
590.248	22.6
590.586	22.8
590.924	23.05
591.262	23.32
591.599	23.6
591.937	23.87
592.275	24.09
592.612	24.33
592.95	24.59
593.287	24.85
593.625	25.17
593.962	25.47
594.299	25.74
594.637	25.95
594.974	26.21
595.311	26.42
595.648	26.67
595.985	26.93
596.322	27.11
596.659	27.35
596.996	27.55
597.333	27.76
597.67	27.98
598.007	28.16
598.344	28.37
598.681	28.55
599.017	28.71
599.354	28.92
599.691	29.15
600.027	29.37
600.364	29.61
600.7	29.85
601.037	30.09
601.373	30.36
601.71	30.69
602.046	30.91
602.382	31.13
602.718	31.32
603.054	31.46
603.391	31.63
603.727	31.78
604.063	31.96
604.399	32.11
604.735	32.31
605.071	32.52
605.406	32.63
605.742	32.81
606.078	33
606.414	33.19
606.749	33.38
607.085	33.53
607.421	33.73
607.756	33.88
608.092	34.08
608.427	34.23
608.762	34.34
609.098	34.49
609.433	34.63
609.768	34.76
610.104	34.9
610.439	35.03
610.774	35.14
611.109	35.23
611.444	35.31
611.779	35.37
612.114	35.43
612.449	35.57
612.784	35.71
613.118	35.82
613.453	35.97
613.788	36.05
614.123	36.17
614.457	36.24
614.792	36.36
615.126	36.43
615.461	36.58
615.795	36.65
616.13	36.75
616.464	36.84
616.798	36.92
617.132	37
617.467	37.08
617.801	37.11
618.135	37.23
618.469	37.36
618.803	37.42
619.137	37.52
619.471	37.62
619.805	37.71
620.139	37.81
620.472	37.88
620.806	37.93
621.14	38.02
621.473	38.11
621.807	38.21
622.141	38.3
622.474	38.33
622.808	38.46
623.141	38.57
623.474	38.71
623.808	38.84
624.141	38.92
624.474	39.04
624.807	39.21
625.141	39.33
625.474	39.41
625.807	39.51
626.14	39.6
626.473	39.69
626.806	39.71
627.138	39.81
627.471	39.85
627.804	39.94
628.137	40.01
628.469	40.08
628.802	40.12
629.135	40.18
629.467	40.26
629.8	40.33
630.132	40.36
630.465	40.43
630.797	40.48
631.129	40.61
631.461	40.65
631.794	40.74
632.126	40.75
632.458	40.84
632.79	40.93
633.122	41
633.454	41.07
633.786	41.15
634.118	41.13
634.45	41.21
634.781	41.3
635.113	41.31
635.445	41.36
635.777	41.46
636.108	41.49
636.44	41.47
636.771	41.46
637.103	41.5
637.434	41.53
637.765	41.55
638.097	41.54
638.428	41.56
638.759	41.55
639.09	41.58
639.422	41.59
639.753	41.6
640.084	41.63
640.415	41.58
640.746	41.62
641.077	41.67
641.407	41.67
641.738	41.73
642.069	41.8
642.4	41.78
642.73	41.75
643.061	41.8
643.392	41.94
643.722	42.04
644.053	42.09
644.383	42.08
644.713	42.14
645.044	42.21
645.374	42.26
645.704	42.28
646.034	42.34
646.365	42.39
646.695	42.44
647.025	42.41
647.355	42.54
647.685	42.6
648.015	42.62
648.344	42.72
648.674	42.74
649.004	42.78
649.334	42.9
649.663	42.96
649.993	43.03
650.323	43.04
650.652	43.02
650.982	43.04
651.311	43.07
651.64	43.09
651.97	43.07
652.299	43.04
652.628	43.14
652.958	43.19
653.287	43.21
653.616	43.18
653.945	43.14
654.274	43.14
654.603	43.14
654.932	43.16
655.261	43.17
655.589	43.2
655.918	43.25
656.247	43.29
656.576	43.38
656.904	43.42
657.233	43.46
657.561	43.57
657.89	43.62
658.218	43.67
658.547	43.7
658.875	43.76
659.203	43.83
659.532	43.74
659.86	43.75
660.188	43.77
660.516	43.76
660.844	43.85
661.172	43.87
661.5	43.83
661.828	43.9
662.156	43.89
662.484	43.99
662.811	44.02
663.139	44.05
663.467	44.05
663.794	44.03
664.122	44.07
664.45	44.08
664.777	44.04
665.104	44.1
665.432	44.02
665.759	44.03
666.086	44.04
666.414	44.17
666.741	44.2
667.068	44.2
667.395	44.25
667.722	44.29
668.049	44.31
668.376	44.27
668.703	44.28
669.03	44.32
669.357	44.19
669.683	44.19
670.01	44.09
670.337	44.07
670.663	44.07
670.99	44.02
671.317	44.07
671.643	44.13
671.969	44.09
672.296	44.21
672.622	44.23
672.948	44.27
673.275	44.23
673.601	44.26
673.927	44.27
674.253	44.33
674.579	44.31
674.905	44.31
675.231	44.42
675.557	44.51
675.883	44.57
676.209	44.66
676.534	44.66
676.86	44.78
677.186	44.88
677.511	44.93
677.837	44.98
678.162	44.96
678.488	44.95
678.813	45.03
679.139	45.04
679.464	45.1
679.789	45.08
680.114	45.14
680.44	45.13
680.765	45.13
681.09	45.23
681.415	45.28
681.74	45.26
682.065	45.24
682.39	45.18
682.714	45.11
683.039	45.11
683.364	45.06
683.689	45
684.013	44.98
684.338	44.91
684.662	44.85
684.987	44.83
685.311	44.76
685.636	44.64
685.96	44.65
686.284	44.55
686.608	44.66
686.933	44.59
687.257	44.62
687.581	44.67
687.905	44.55
688.229	44.58
688.553	44.52
688.877	44.66
689.201	44.68
689.524	44.68
689.848	44.68
690.172	44.79
690.496	44.92
690.819	44.84
691.143	44.86
691.466	44.89
691.79	44.87
692.113	44.95
692.436	45.02
692.76	44.96
693.083	45.06
693.406	44.96
693.729	45
694.053	45.03
694.376	44.97
694.699	45.04
695.022	45.19
695.344	45.39
695.667	45.43
695.99	45.54
696.313	45.62
696.636	45.7
696.958	45.66
697.281	45.59
697.604	45.67
697.926	45.73
698.249	45.77
698.571	45.77
698.893	45.8
699.216	45.78
699.538	45.84
699.86	45.72
700.182	45.75
700.504	45.75
700.827	45.63
701.149	45.67
701.471	45.51
701.793	45.38
702.114	45.3
702.436	45.14
702.758	45.09
703.08	44.94
703.401	44.87
703.723	44.84
704.045	44.75
704.366	44.77
704.688	44.73
705.009	44.64
705.331	44.71
705.652	44.82
705.973	44.99
706.294	44.99
706.616	45.07
706.937	44.95
707.258	44.93
707.579	45.12
707.9	45.23
708.221	45.4
708.542	45.51
708.863	45.45
709.183	45.49
709.504	45.46
709.825	45.64
710.145	45.6
710.466	45.56
710.787	45.72
711.107	45.68
711.427	45.65
711.748	45.8
712.068	45.77
712.388	45.68
712.709	45.61
713.029	45.68
713.349	45.74
713.669	45.85
713.989	45.97
714.309	45.92
714.629	45.84
714.949	45.78
715.269	45.8
715.589	45.84
715.908	45.92
716.228	45.9
716.548	45.9
716.867	46.05
717.187	46.15
717.506	46.12
717.826	46.16
718.145	46.17
718.465	46.16
718.784	46.3
719.103	46.22
719.422	46.24
719.741	46.28
720.061	46.38
720.38	46.45
720.699	46.45
721.018	46.56
721.336	46.64
721.655	46.63
721.974	46.57
722.293	46.64
722.612	46.6
722.93	46.66
723.249	46.79
723.567	46.62
723.886	46.54
724.204	46.64
724.523	46.71
724.841	46.93
725.159	46.92
725.477	46.96
725.796	47.23
726.114	47.41
726.432	47.36
726.75	47.47
727.068	47.65
727.386	47.67
727.704	47.75
728.022	47.68
728.339	47.91
728.657	48.03
728.975	48.16
729.292	48.33
729.61	48.36
729.928	48.18
730.245	48.5
730.562	48.66
730.88	48.86
731.197	48.96
731.514	48.96
731.832	49.15
732.149	49.14
732.466	49.26
732.783	49.32
733.1	49.51
733.417	49.7
733.734	49.74
734.051	49.92
734.368	50.07
734.684	50.35
735.001	50.42
735.318	50.43
735.634	50.5
735.951	50.43
736.268	50.55
736.584	50.8
736.9	50.73
737.217	50.82
737.533	50.63
737.849	50.66
738.166	50.84
738.482	50.93
738.798	51
739.114	51.01
739.43	51.02
739.746	50.99
740.062	50.83
740.378	50.78
740.693	50.85
741.009	50.85
741.325	50.99
741.641	51.06
741.956	51.27
742.272	51.36
742.587	51.61
742.903	51.7
743.218	51.76
743.533	51.67
743.849	51.75
744.164	51.94
744.479	51.95
744.794	51.91
745.109	51.94
745.424	52.01
745.739	52.15
746.054	52.2
746.369	52.44
746.684	52.66
746.999	52.76
747.313	52.79
747.628	52.75
747.943	52.61
748.257	52.62
748.572	52.56
748.886	52.65
749.201	52.66
749.515	52.74
749.829	52.78
750.144	52.86
750.458	52.85
750.772	52.94
751.086	52.94
751.4	53.05
751.714	53.03
752.028	53.14
752.342	53
752.656	53.03
752.97	52.84
753.284	52.99
753.597	52.8
753.911	52.92
754.225	53.03
754.538	53.17
754.852	53.28
755.165	53.43
755.478	53.42
755.792	53.41
756.105	53.6
756.418	53.6
756.731	53.81
757.045	53.84
757.358	53.81
757.671	53.86
757.984	53.92
758.297	54.06
758.609	54.19
758.922	54.29
759.235	54.24
759.548	54.3
759.86	54.17
760.173	54.22
760.486	54.08
760.798	53.91
761.111	53.89
761.423	53.86
761.735	53.86
762.048	53.76
762.36	53.9
762.672	53.82
762.984	54
763.296	54.05
763.608	54.27
763.92	54.49
764.232	54.54
764.544	54.53
764.856	54.56
765.168	54.5
765.48	54.72
765.791	54.95
766.103	55.09
766.414	55.24
766.726	55.53
767.037	55.69
767.349	56.07
767.66	56.32
767.972	56.48
768.283	56.73
768.594	57.13
768.905	57.31
769.216	57.59
769.527	57.95
769.838	58.21
770.149	58.26
770.46	58.34
770.771	58.8
771.082	59.07
771.393	59.34
771.703	59.52
772.014	59.33
772.324	59.33
772.635	59.34
772.945	59.44
773.256	59.73
773.566	59.94
773.877	59.81
774.187	59.71
774.497	59.58
774.807	59.38
775.117	59.36
775.427	59.33
775.737	59.36
776.047	59.02
776.357	59.02
776.667	59.01
776.977	58.67
777.287	58.37
777.596	58.55
777.906	58.51
778.216	58.57
778.525	59.08
778.835	59.07
779.144	59.02
779.453	58.88
779.763	58.91
780.072	59.17
780.381	59.5
780.69	59.76
781	60.12
781.309	60.36
781.618	60.5
781.927	60.58
782.235	60.45
782.544	60.7
782.853	60.62
783.162	60.6
783.471	61.16
783.779	61.34
784.088	61.45
784.396	61.35
784.705	61.14
785.013	60.52
785.322	60.51
785.63	60.51
785.938	60.55
786.246	60.36
786.554	60.11
786.863	60.03
787.171	59.8
787.479	60.16
787.787	59.96
788.094	59.94
788.402	59.96
788.71	59.88
789.018	59.97
789.326	60.23
789.633	60.4
789.941	60.2
790.248	60.18
790.556	59.98
790.863	60.13
791.171	60.51
791.478	60.94
791.785	60.96
792.092	61.23
792.399	61.22
792.707	61.39
793.014	61.52
793.321	61.59
793.628	61.66
793.934	61.66
794.241	62.04
794.548	62.16
794.855	62.48
795.161	62.65
795.468	62.49
795.775	62.33
796.081	62.72
796.388	62.72
796.694	62.83
797	63.28
797.307	63.24
797.613	63.07
797.919	62.88
798.225	62.98
798.531	62.76
798.837	62.95
799.143	62.81
799.449	62.75
799.755	62.97
800.061	63.4
800.367	63.24
800.672	63.25
800.978	63.14
801.284	62.64
801.589	63.01
801.895	62.96
802.2	63.02
802.506	62.84
802.811	62.76
803.116	62.63
803.421	62.57
803.727	62.55
804.032	62.99
804.337	63.38
804.642	63.67
804.947	63.78
805.252	63.68
805.556	63.77
805.861	63.89
806.166	63.78
806.471	63.73
806.775	64.26
807.08	64.47
807.384	64.74
807.689	65.19
807.993	64.63
808.298	65.08
808.602	65.15
808.906	64.85
809.211	64.87
809.515	64.9
809.819	64.41
810.123	64.69
810.427	64.54
810.731	64.18
811.035	64.08
811.338	64.35
811.642	64.48
811.946	65.03
812.25	65.31
812.553	65.44
812.857	65.5
813.16	65.11
813.464	64.92
813.767	65.04
814.07	65.28
814.374	65.88
814.677	65.58
814.98	65.54
815.283	65.99
815.586	66.21
815.889	66.27
816.192	66.22
816.495	65.99
816.798	65.84
817.101	66.18
817.404	66.02
817.706	65.71
818.009	65.61
818.312	64.62
818.614	63.68
818.917	62.74
819.219	61.35
819.521	60
819.824	58.73
820.126	57.82
820.428	57.02
820.73	56.53
821.032	56.29
821.334	56.04
821.636	55.93
821.938	55.8
822.24	55.76
822.542	55.75
822.844	55.69
823.145	55.65
823.447	55.55
823.749	55.52
824.05	55.45
824.352	55.33
824.653	55.46
824.955	55.46
825.256	55.33
825.557	55.5
825.858	55.65
826.16	55.9
826.461	56.23
826.762	56.59
827.063	56.95
827.364	57.35
827.665	57.68
827.965	57.86
828.266	58.24
828.567	58.54
828.868	58.83
829.168	58.98
829.469	59.26
829.769	59.37
830.07	59.46
830.37	59.79
830.67	60.21
830.971	60.35
831.271	60.73
831.571	61
831.871	61
832.171	61.16
832.471	61.66
832.771	61.61
833.071	61.74
833.371	61.92
833.671	61.59
833.971	61.83
834.27	62.16
834.57	62.04
834.869	62.06
835.169	62.02
835.468	62.25
835.768	62.11
836.067	62.16
836.367	62.35
836.666	62.68
836.965	62.94
837.264	63.14
837.563	63.67
837.862	64.91
838.161	65.77
838.46	66.67
838.759	67.3
839.058	68.26
839.356	69.3
839.655	69.55
839.954	70.46
840.252	70.84
840.551	70.71
840.849	70.95
841.148	70.87
841.446	71.41
841.744	71.06
842.043	71.54
842.341	71.55
842.639	72.26
842.937	72.14
843.235	72.76
843.533	73.02
843.831	72.63
844.129	72.75
844.427	72.35
844.724	72.55
845.022	72.08
845.32	71.92
845.617	71.21
845.915	72.26
846.212	73.13
846.51	73.03
846.807	73.76
847.104	74.51
847.402	74.34
847.699	74.54
847.996	74.97
848.293	74.97
848.59	75.76
848.887	75.65
849.184	76.14
849.481	75.78
849.778	76.03
850.074	76.9
850.371	76.75
850.668	77.89
850.964	77.51
851.261	79.27
851.557	80.19
851.854	80.89
852.15	80.27
852.446	79.84
852.743	80.47
853.039	80.37
853.335	80.41
853.631	82.38
853.927	82.72
854.223	83.75
854.519	84.19
854.815	84.52
855.111	84.33
855.406	82.71
855.702	82.02
855.998	81.02
856.293	81.24
856.589	81.6
856.884	81.27
857.18	81.81
857.475	81.27
857.77	80.67
858.066	81.23
858.361	81.24
858.656	80.4
858.951	80.06
859.246	79
859.541	78.55
859.836	77.29
860.131	77.16
860.426	77.07
860.72	76.45
861.015	75.86
861.31	75.97
861.604	76.86
861.899	77.74
862.193	77.99
862.487	77.7
862.782	77.74
863.076	77.53
863.37	76.79
863.664	76.4
863.959	77.09
864.253	77.38
864.547	77.12
864.841	77.58
865.135	77.71
865.428	79.31
865.722	79.42
866.016	79.73
866.31	79.54
866.603	79.28
866.897	79.93
867.19	80.65
867.484	81.43
867.777	82.24
868.07	82.12
868.364	83.62
868.657	83.95
868.95	84.8
869.243	85.53
869.536	86.46
869.829	85.96
870.122	84.98
870.415	83.81
870.708	84.72
871	86.17
871.293	86.05
871.586	85.39
871.878	85.19
872.171	85.63
872.463	84.4
872.756	84.12
873.048	82.65
873.341	82.31
873.633	81.48
873.925	81.19
874.217	81.47
874.509	80.59
874.801	80.32
875.093	79.29
875.385	78.65
875.677	77.93
875.969	78.65
