Data from pcis_p_h3_p6_Reflection_2.txt Node
Date: Wed Jul 12 17:55:31 ART 2017
User: rodoncho
Spectrometer: USB2E3644
Trigger mode: 4
Integration Time (sec): 6.000000E-2
Scans to average: 10
Electric dark correction enabled: true
Nonlinearity correction enabled: false
Boxcar width: 10
XAxis mode: Wavelengths
Number of Pixels in Spectrum: 2048
>>>>>Begin Spectral Data<<<<<
178.315	297.06
178.696	500
179.076	82.55
179.457	134.25
179.838	50
180.218	17.93
180.599	-730
180.979	-5.88
181.36	-47.34
181.74	-85.48
182.121	208.82
182.501	92.39
182.881	65.54
183.262	31.91
183.642	-51.94
184.022	381.03
184.402	198.37
184.783	164.19
185.163	156.84
185.543	156.58
185.923	181.06
186.303	204.86
186.683	211.31
187.063	179.3
187.443	177.63
187.823	156.33
188.203	141.55
188.583	153.25
188.963	154.51
189.343	149.94
189.723	151.87
190.102	151.28
190.482	151.57
190.862	147.51
191.242	144.66
191.621	143.39
192.001	141.92
192.38	141.05
192.76	143.99
193.14	144.39
193.519	137.04
193.898	128.85
194.278	123.49
194.657	120.95
195.037	118.71
195.416	117.08
195.795	116.7
196.175	120.75
196.554	121.91
196.933	121.63
197.312	119.98
197.692	118.51
198.071	118.15
198.45	116.53
198.829	117.16
199.208	115.8
199.587	114.67
199.966	115.76
200.345	114.39
200.724	113.25
201.103	111.73
201.482	112.12
201.86	115.33
202.239	117.59
202.618	117.17
202.997	118.56
203.375	119.14
203.754	119.09
204.133	116.83
204.511	113.2
204.89	113.85
205.269	115.31
205.647	115.58
206.026	116.73
206.404	115.01
206.782	113.39
207.161	114.16
207.539	114.34
207.918	114.51
208.296	116.23
208.674	116.3
209.052	114.66
209.431	113.98
209.809	111.82
210.187	109.31
210.565	109.52
210.943	108.92
211.321	108.42
211.699	108.44
212.077	109.16
212.455	111.1
212.833	111.51
213.211	109.19
213.589	109.43
213.967	107.97
214.345	109.73
214.722	109.84
215.1	109.55
215.478	111.01
215.855	112.39
216.233	111.08
216.611	111.3
216.988	112.18
217.366	112.87
217.743	114.36
218.121	115.27
218.498	114.95
218.876	115.19
219.253	115.24
219.631	115.7
220.008	116.47
220.385	114.95
220.762	113.7
221.14	114.1
221.517	113.25
221.894	113.69
222.271	113.03
222.648	113.95
223.025	115.22
223.402	113.32
223.78	112.43
224.157	113.29
224.533	113.67
224.91	112.85
225.287	112.44
225.664	111.84
226.041	113.78
226.418	114.5
226.795	115.45
227.171	116.77
227.548	117.9
227.925	118.25
228.301	119.12
228.678	118.48
229.055	117.62
229.431	117.94
229.808	118.91
230.184	118.18
230.561	116.58
230.937	115.29
231.313	116.26
231.69	116.8
232.066	117.88
232.442	118.28
232.819	118.52
233.195	119.33
233.571	119.09
233.947	117.15
234.323	117.45
234.699	117
235.075	115.82
235.451	115.85
235.827	115.35
236.203	115
236.579	116.94
236.955	119.61
237.331	121.81
237.707	123.9
238.083	128.05
238.459	135.01
238.834	142.1
239.21	148.24
239.586	155.24
239.961	159.86
240.337	161.45
240.713	166.98
241.088	172.52
241.464	176.34
241.839	188.54
242.215	198.7
242.59	215.93
242.965	254.7
243.341	335.61
243.716	494.42
244.091	930.02
244.467	2113.92
244.842	-8066.36
245.217	-1775.8
245.592	-1335.16
245.967	-1134.89
246.343	-1375.68
246.718	-1711.38
247.093	-1703.54
247.468	-1648.72
247.843	-1459.19
248.218	-954.84
248.593	-668.99
248.967	-537.96
249.342	-470.05
249.717	-487.49
250.092	-505.38
250.467	-581.26
250.841	-866.45
251.216	-3387.87
251.591	1851.2
251.965	798.24
252.34	611.36
252.714	514.87
253.089	452.33
253.463	419.64
253.838	429.75
254.212	455.47
254.587	496.44
254.961	560.6
255.335	801.25
255.71	5023.68
256.084	-835.32
256.458	-383.64
256.832	-254.08
257.206	-204.58
257.581	-178.56
257.955	-166.14
258.329	-156.12
258.703	-143.89
259.077	-135.91
259.451	-128.97
259.825	-120.6
260.199	-115.71
260.572	-113.01
260.946	-108.58
261.32	-107.4
261.694	-104.12
262.068	-99.15
262.441	-95.48
262.815	-92.56
263.189	-92.23
263.562	-97.66
263.936	-112.57
264.309	-133.76
264.683	-158.89
265.056	-173.63
265.43	-183.34
265.803	-178.23
266.176	-169.6
266.55	-166.34
266.923	-159.05
267.296	-149.38
267.67	-142.66
268.043	-129.97
268.416	-118.69
268.789	-105.32
269.162	-91.97
269.535	-85.59
269.908	-82.57
270.281	-81.77
270.654	-82.72
271.027	-85.17
271.4	-85.56
271.773	-84.91
272.146	-83.57
272.519	-80.15
272.891	-78.99
273.264	-77.79
273.637	-77.53
274.01	-78.11
274.382	-76.76
274.755	-76.7
275.127	-76.7
275.5	-77.07
275.872	-77.11
276.245	-77.55
276.617	-80.04
276.99	-84.7
277.362	-87.72
277.734	-87.92
278.107	-85.54
278.479	-80.71
278.851	-76.05
279.223	-73.38
279.596	-72.88
279.968	-73.01
280.34	-73.81
280.712	-71.75
281.084	-68.13
281.456	-63.23
281.828	-59.1
282.2	-55.49
282.572	-51.22
282.944	-48.5
283.315	-47.3
283.687	-46.99
284.059	-47.2
284.431	-46.83
284.802	-46.09
285.174	-44.43
285.546	-43.2
285.917	-42.79
286.289	-41.95
286.66	-41.28
287.032	-41.17
287.403	-40.02
287.775	-38.88
288.146	-37.45
288.518	-37.31
288.889	-36.99
289.26	-37.69
289.632	-38.21
290.003	-39.09
290.374	-41.25
290.745	-41.95
291.116	-41.07
291.487	-39.8
291.858	-37.91
292.229	-37.06
292.6	-35.05
292.971	-33.68
293.342	-32.11
293.713	-30.35
294.084	-29.5
294.455	-28.84
294.826	-27.98
295.196	-27.72
295.567	-27.51
295.938	-27.29
296.308	-27.03
296.679	-26.22
297.05	-25.5
297.42	-24.59
297.791	-23.35
298.161	-21.88
298.532	-21.22
298.902	-21.04
299.272	-20.63
299.643	-19.9
300.013	-19.69
300.383	-19.65
300.754	-19.41
301.124	-19.43
301.494	-19.07
301.864	-18.65
302.234	-18.1
302.604	-17.71
302.974	-17.5
303.344	-17.39
303.714	-17.18
304.084	-16.47
304.454	-16.5
304.824	-16.05
305.194	-15.69
305.563	-15.32
305.933	-14.16
306.303	-12.81
306.673	-11.93
307.042	-11.05
307.412	-10.61
307.781	-9.3
308.151	-8.51
308.521	-8.06
308.89	-7.86
309.259	-7.54
309.629	-7.33
309.998	-7.21
310.368	-7.29
310.737	-6.87
311.106	-6.18
311.475	-5.84
311.845	-5.55
312.214	-5.11
312.583	-4.67
312.952	-4.21
313.321	-4.03
313.69	-4.25
314.059	-4.85
314.428	-4.97
314.797	-5.49
315.166	-5.92
315.535	-6.49
315.904	-6.72
316.272	-7.03
316.641	-6.86
317.01	-7.08
317.379	-6.96
317.747	-6.85
318.116	-6.46
318.484	-6.01
318.853	-5.89
319.221	-5.73
319.59	-5.52
319.958	-5.35
320.327	-5.06
320.695	-4.68
321.063	-4.24
321.432	-3.82
321.8	-3.32
322.168	-2.47
322.536	-1.69
322.905	-0.79
323.273	-0.11
323.641	0.25
324.009	0.48
324.377	0.82
324.745	1.03
325.113	1.32
325.481	1.89
325.849	2.18
326.216	2.37
326.584	2.78
326.952	3.29
327.32	3.75
327.687	4.27
328.055	4.82
328.423	4.96
328.79	4.85
329.158	4.87
329.525	5.14
329.893	5.32
330.26	5.58
330.628	5.55
330.995	5.68
331.362	6.06
331.73	6.78
332.097	7.06
332.464	7.45
332.831	7.66
333.199	7.99
333.566	8.43
333.933	8.63
334.3	8.64
334.667	8.9
335.034	9.04
335.401	8.97
335.768	8.67
336.135	8.81
336.502	9.18
336.868	9.56
337.235	9.98
337.602	10.28
337.969	10.45
338.335	10.8
338.702	11.13
339.069	11.34
339.435	11.38
339.802	11.43
340.168	11.73
340.535	12.04
340.901	12.06
341.267	12.17
341.634	12.45
342	12.68
342.366	12.76
342.733	13.02
343.099	13.43
343.465	13.87
343.831	14.12
344.197	14.22
344.563	14.24
344.929	14.33
345.295	14.51
345.661	14.78
346.027	14.97
346.393	15.08
346.759	15.08
347.125	15.13
347.491	15.26
347.856	15.23
348.222	15.21
348.588	15.38
348.953	15.48
349.319	15.56
349.684	15.77
350.05	15.87
350.415	15.99
350.781	16.15
351.146	16.28
351.512	16.43
351.877	16.64
352.242	16.84
352.608	16.92
352.973	16.9
353.338	16.9
353.703	16.98
354.068	17.17
354.433	17.38
354.798	17.58
355.164	17.82
355.528	18
355.893	18.23
356.258	18.37
356.623	18.52
356.988	18.56
357.353	18.66
357.718	18.8
358.082	18.9
358.447	18.88
358.812	18.93
359.176	18.96
359.541	19.03
359.905	19.22
360.27	19.38
360.634	19.5
360.999	19.62
361.363	19.72
361.728	19.81
362.092	19.92
362.456	19.99
362.821	20.01
363.185	20.09
363.549	20.08
363.913	20.1
364.277	20.16
364.641	20.35
365.005	20.46
365.369	20.57
365.733	20.67
366.097	20.85
366.461	20.9
366.825	20.98
367.189	21.15
367.553	21.2
367.916	21.33
368.28	21.35
368.644	21.57
369.007	21.66
369.371	21.73
369.734	21.85
370.098	21.99
370.461	22.13
370.825	22.32
371.188	22.48
371.552	22.66
371.915	22.85
372.278	22.89
372.642	22.98
373.005	23.06
373.368	23.16
373.731	23.25
374.094	23.38
374.457	23.41
374.82	23.42
375.183	23.47
375.546	23.45
375.909	23.59
376.272	23.51
376.635	23.59
376.998	23.62
377.361	23.63
377.723	23.65
378.086	23.69
378.449	23.67
378.811	23.77
379.174	23.81
379.537	23.83
379.899	23.96
380.262	24.01
380.624	24.08
380.987	24.12
381.349	24.09
381.711	24.15
382.074	24.23
382.436	24.32
382.798	24.36
383.16	24.4
383.522	24.47
383.884	24.61
384.247	24.68
384.609	24.79
384.971	24.83
385.333	24.94
385.695	24.97
386.056	24.99
386.418	24.98
386.78	24.98
387.142	24.96
387.504	24.95
387.865	24.97
388.227	24.99
388.589	24.97
388.95	25.02
389.312	25.04
389.673	25.06
390.035	25.04
390.396	25.06
390.758	25.07
391.119	25.03
391.48	24.99
391.842	24.91
392.203	24.84
392.564	24.81
392.925	24.76
393.286	24.74
393.648	24.77
394.009	24.76
394.37	24.75
394.731	24.68
395.092	24.64
395.452	24.6
395.813	24.55
396.174	24.57
396.535	24.5
396.896	24.44
397.257	24.43
397.617	24.43
397.978	24.44
398.338	24.45
398.699	24.47
399.06	24.47
399.42	24.45
399.781	24.46
400.141	24.45
400.501	24.39
400.862	24.36
401.222	24.33
401.582	24.29
401.943	24.25
402.303	24.31
402.663	24.33
403.023	24.33
403.383	24.32
403.743	24.3
404.103	24.32
404.463	24.35
404.823	24.36
405.183	24.34
405.543	24.32
405.903	24.27
406.262	24.2
406.622	24.21
406.982	24.25
407.342	24.25
407.701	24.23
408.061	24.23
408.42	24.24
408.78	24.23
409.139	24.25
409.499	24.25
409.858	24.22
410.217	24.23
410.577	24.22
410.936	24.22
411.295	24.18
411.655	24.18
412.014	24.16
412.373	24.1
412.732	24.03
413.091	23.95
413.45	23.92
413.809	23.9
414.168	23.82
414.527	23.69
414.886	23.61
415.245	23.53
415.603	23.41
415.962	23.28
416.321	23.18
416.679	23.03
417.038	22.92
417.397	22.81
417.755	22.68
418.114	22.58
418.472	22.46
418.831	22.4
419.189	22.32
419.547	22.22
419.906	22.12
420.264	22.02
420.622	21.94
420.981	21.84
421.339	21.76
421.697	21.66
422.055	21.62
422.413	21.54
422.771	21.49
423.129	21.46
423.487	21.43
423.845	21.39
424.203	21.38
424.56	21.35
424.918	21.33
425.276	21.31
425.634	21.32
425.991	21.32
426.349	21.29
426.707	21.3
427.064	21.3
427.422	21.32
427.779	21.36
428.137	21.4
428.494	21.46
428.851	21.5
429.209	21.54
429.566	21.56
429.923	21.58
430.28	21.59
430.637	21.62
430.995	21.65
431.352	21.67
431.709	21.72
432.066	21.76
432.423	21.81
432.78	21.86
433.137	21.87
433.493	21.92
433.85	21.98
434.207	21.97
434.564	21.98
434.92	22.01
435.277	22.04
435.634	22.07
435.99	22.09
436.347	22.1
436.703	22.11
437.06	22.14
437.416	22.19
437.773	22.24
438.129	22.26
438.485	22.28
438.841	22.3
439.198	22.28
439.554	22.26
439.91	22.25
440.266	22.22
440.622	22.19
440.978	22.13
441.334	22.06
441.69	22.01
442.046	21.94
442.402	21.83
442.758	21.74
443.113	21.64
443.469	21.56
443.825	21.5
444.181	21.45
444.536	21.37
444.892	21.28
445.247	21.2
445.603	21.13
445.958	21.06
446.314	20.97
446.669	20.89
447.025	20.83
447.38	20.76
447.735	20.7
448.09	20.64
448.446	20.59
448.801	20.53
449.156	20.46
449.511	20.41
449.866	20.37
450.221	20.35
450.576	20.31
450.931	20.27
451.286	20.2
451.641	20.16
451.995	20.12
452.35	20.12
452.705	20.11
453.06	20.12
453.414	20.13
453.769	20.15
454.123	20.17
454.478	20.19
454.832	20.2
455.187	20.22
455.541	20.23
455.896	20.26
456.25	20.28
456.604	20.33
456.958	20.36
457.313	20.42
457.667	20.47
458.021	20.54
458.375	20.6
458.729	20.71
459.083	20.78
459.437	20.88
459.791	20.96
460.145	21.03
460.499	21.13
460.852	21.22
461.206	21.35
461.56	21.47
461.914	21.58
462.267	21.73
462.621	21.87
462.974	22.06
463.328	22.27
463.681	22.53
464.035	22.77
464.388	23.03
464.742	23.25
465.095	23.47
465.448	23.67
465.801	23.85
466.155	24.02
466.508	24.2
466.861	24.33
467.214	24.47
467.567	24.61
467.92	24.75
468.273	24.89
468.626	24.99
468.979	25.1
469.332	25.18
469.684	25.28
470.037	25.37
470.39	25.46
470.743	25.55
471.095	25.6
471.448	25.66
471.8	25.71
472.153	25.72
472.505	25.7
472.858	25.68
473.21	25.65
473.562	25.57
473.915	25.49
474.267	25.44
474.619	25.34
474.971	25.24
475.324	25.09
475.676	24.96
476.028	24.84
476.38	24.71
476.732	24.6
477.084	24.44
477.436	24.25
477.787	24.06
478.139	23.87
478.491	23.69
478.843	23.46
479.195	23.22
479.546	22.96
479.898	22.67
480.249	22.39
480.601	22.16
480.952	21.99
481.304	21.86
481.655	21.74
482.007	21.64
482.358	21.58
482.709	21.52
483.061	21.46
483.412	21.41
483.763	21.37
484.114	21.34
484.465	21.32
484.816	21.32
485.167	21.33
485.518	21.33
485.869	21.35
486.22	21.38
486.571	21.42
486.922	21.47
487.272	21.55
487.623	21.69
487.974	21.85
488.324	22.04
488.675	22.22
489.025	22.39
489.376	22.56
489.726	22.73
490.077	22.9
490.427	23.08
490.778	23.29
491.128	23.54
491.478	23.8
491.828	24.12
492.179	24.43
492.529	24.75
492.879	25.07
493.229	25.4
493.579	25.74
493.929	26.07
494.279	26.41
494.629	26.77
494.979	27.2
495.328	27.69
495.678	28.22
496.028	28.76
496.378	29.3
496.727	29.78
497.077	30.24
497.426	30.69
497.776	31.13
498.125	31.55
498.475	31.94
498.824	32.32
499.174	32.69
499.523	33.08
499.872	33.49
500.221	33.96
500.571	34.4
500.92	34.83
501.269	35.29
501.618	35.72
501.967	36.15
502.316	36.56
502.665	36.97
503.014	37.39
503.363	37.8
503.711	38.16
504.06	38.55
504.409	38.91
504.758	39.27
505.106	39.57
505.455	39.87
505.803	40.16
506.152	40.42
506.5	40.69
506.849	40.96
507.197	41.21
507.546	41.44
507.894	41.69
508.242	41.94
508.59	42.15
508.939	42.36
509.287	42.55
509.635	42.71
509.983	42.88
510.331	43.05
510.679	43.22
511.027	43.39
511.375	43.55
511.723	43.74
512.07	43.91
512.418	44.12
512.766	44.31
513.114	44.49
513.461	44.68
513.809	44.84
514.156	44.97
514.504	45.14
514.851	45.3
515.199	45.47
515.546	45.61
515.893	45.75
516.241	45.89
516.588	46.02
516.935	46.2
517.282	46.29
517.63	46.39
517.977	46.46
518.324	46.55
518.671	46.67
519.018	46.75
519.365	46.83
519.711	46.91
520.058	46.99
520.405	47.07
520.752	47.14
521.099	47.24
521.445	47.38
521.792	47.49
522.138	47.59
522.485	47.66
522.832	47.77
523.178	47.87
523.524	47.96
523.871	48.08
524.217	48.13
524.563	48.25
524.91	48.42
525.256	48.6
525.602	48.75
525.948	48.8
526.294	48.85
526.64	48.86
526.986	48.88
527.332	48.91
527.678	48.95
528.024	49
528.37	49.05
528.716	49.08
529.061	49.15
529.407	49.2
529.753	49.29
530.098	49.36
530.444	49.43
530.789	49.5
531.135	49.54
531.48	49.61
531.826	49.69
532.171	49.75
532.516	49.81
532.862	49.86
533.207	49.96
533.552	50.06
533.897	50.2
534.242	50.31
534.587	50.4
534.932	50.5
535.277	50.61
535.622	50.67
535.967	50.75
536.312	50.79
536.657	50.87
537.001	50.98
537.346	51.07
537.691	51.18
538.035	51.27
538.38	51.38
538.724	51.42
539.069	51.46
539.413	51.48
539.758	51.5
540.102	51.54
540.446	51.57
540.791	51.62
541.135	51.64
541.479	51.69
541.823	51.74
542.167	51.77
542.512	51.78
542.856	51.82
543.2	51.87
543.543	51.94
543.887	51.99
544.231	52.03
544.575	52.1
544.919	52.16
545.262	52.22
545.606	52.28
545.95	52.38
546.293	52.47
546.637	52.57
546.98	52.69
547.324	52.8
547.667	52.93
548.011	53.02
548.354	53.1
548.697	53.18
549.04	53.24
549.384	53.29
549.727	53.39
550.07	53.46
550.413	53.54
550.756	53.55
551.099	53.62
551.442	53.7
551.785	53.75
552.128	53.81
552.47	53.85
552.813	53.89
553.156	53.96
553.499	54.04
553.841	54.08
554.184	54.11
554.526	54.16
554.869	54.18
555.211	54.2
555.554	54.23
555.896	54.29
556.238	54.39
556.581	54.44
556.923	54.44
557.265	54.5
557.607	54.57
557.949	54.69
558.291	54.75
558.633	54.8
558.975	54.85
559.317	54.91
559.659	54.97
560.001	55.01
560.343	55.05
560.685	55.04
561.026	55.05
561.368	55.07
561.71	55.05
562.051	55.06
562.393	55.11
562.734	55.1
563.076	55.13
563.417	55.15
563.759	55.21
564.1	55.26
564.441	55.26
564.782	55.28
565.124	55.27
565.465	55.28
565.806	55.35
566.147	55.36
566.488	55.35
566.829	55.33
567.17	55.35
567.511	55.32
567.851	55.35
568.192	55.38
568.533	55.42
568.874	55.49
569.214	55.47
569.555	55.49
569.895	55.54
570.236	55.55
570.576	55.54
570.917	55.55
571.257	55.61
571.598	55.67
571.938	55.67
572.278	55.7
572.618	55.72
572.959	55.67
573.299	55.69
573.639	55.71
573.979	55.74
574.319	55.76
574.659	55.8
574.999	55.84
575.339	55.88
575.678	55.88
576.018	55.89
576.358	55.93
576.698	55.94
577.037	55.99
577.377	56
577.716	56.05
578.056	56.07
578.395	56.01
578.735	56
579.074	56.05
579.413	56.09
579.753	56.11
580.092	56.19
580.431	56.24
580.77	56.3
581.109	56.36
581.448	56.39
581.787	56.43
582.126	56.43
582.465	56.48
582.804	56.49
583.143	56.54
583.482	56.58
583.82	56.62
584.159	56.61
584.498	56.61
584.836	56.66
585.175	56.65
585.514	56.68
585.852	56.7
586.19	56.71
586.529	56.68
586.867	56.72
587.205	56.69
587.544	56.68
587.882	56.69
588.22	56.67
588.558	56.66
588.896	56.66
589.234	56.71
589.572	56.68
589.91	56.66
590.248	56.67
590.586	56.68
590.924	56.71
591.262	56.77
591.599	56.79
591.937	56.76
592.275	56.79
592.612	56.8
592.95	56.8
593.287	56.82
593.625	56.9
593.962	56.88
594.299	56.9
594.637	56.91
594.974	56.91
595.311	56.91
595.648	56.94
595.985	56.94
596.322	56.9
596.659	56.9
596.996	56.98
597.333	56.99
597.67	56.96
598.007	56.94
598.344	56.93
598.681	56.96
599.017	56.96
599.354	56.97
599.691	56.99
600.027	57.02
600.364	57.04
600.7	57.02
601.037	57.04
601.373	57.04
601.71	57.1
602.046	57.11
602.382	57.13
602.718	57.08
603.054	57.08
603.391	57.07
603.727	57.1
604.063	57.09
604.399	57.06
604.735	57.09
605.071	57.11
605.406	57.1
605.742	57.12
606.078	57.11
606.414	57.11
606.749	57.12
607.085	57.08
607.421	57.1
607.756	57.06
608.092	57.03
608.427	57
608.762	56.95
609.098	56.93
609.433	56.9
609.768	56.92
610.104	56.9
610.439	56.94
610.774	56.96
611.109	56.94
611.444	56.93
611.779	56.93
612.114	56.91
612.449	56.89
612.784	56.84
613.118	56.86
613.453	56.88
613.788	56.89
614.123	56.95
614.457	56.92
614.792	56.94
615.126	56.98
615.461	57.01
615.795	57.02
616.13	57.02
616.464	57.08
616.798	57.11
617.132	57.2
617.467	57.23
617.801	57.2
618.135	57.16
618.469	57.17
618.803	57.14
619.137	57.16
619.471	57.16
619.805	57.18
620.139	57.19
620.472	57.23
620.806	57.25
621.14	57.26
621.473	57.24
621.807	57.21
622.141	57.18
622.474	57.22
622.808	57.22
623.141	57.18
623.474	57.19
623.808	57.18
624.141	57.17
624.474	57.16
624.807	57.17
625.141	57.22
625.474	57.28
625.807	57.33
626.14	57.32
626.473	57.34
626.806	57.38
627.138	57.39
627.471	57.37
627.804	57.33
628.137	57.31
628.469	57.31
628.802	57.36
629.135	57.38
629.467	57.37
629.8	57.4
630.132	57.49
630.465	57.51
630.797	57.52
631.129	57.48
631.461	57.43
631.794	57.37
632.126	57.35
632.458	57.34
632.79	57.34
633.122	57.4
633.454	57.41
633.786	57.36
634.118	57.39
634.45	57.36
634.781	57.36
635.113	57.35
635.445	57.36
635.777	57.35
636.108	57.38
636.44	57.36
636.771	57.37
637.103	57.37
637.434	57.33
637.765	57.27
638.097	57.33
638.428	57.37
638.759	57.34
639.09	57.35
639.422	57.28
639.753	57.26
640.084	57.23
640.415	57.2
640.746	57.17
641.077	57.07
641.407	57.04
641.738	57.04
642.069	57.01
642.4	56.95
642.73	56.97
643.061	56.91
643.392	56.9
643.722	56.97
644.053	56.92
644.383	56.93
644.713	56.99
645.044	57.01
645.374	57.04
645.704	57.16
646.034	57.19
646.365	57.22
646.695	57.25
647.025	57.15
647.355	57.2
647.685	57.25
648.015	57.35
648.344	57.4
648.674	57.38
649.004	57.4
649.334	57.45
649.663	57.43
649.993	57.47
650.323	57.51
650.652	57.42
650.982	57.44
651.311	57.42
651.64	57.4
651.97	57.34
652.299	57.33
652.628	57.34
652.958	57.3
653.287	57.36
653.616	57.25
653.945	57.31
654.274	57.28
654.603	57.28
654.932	57.19
655.261	57.22
655.589	57.32
655.918	57.37
656.247	57.43
656.576	57.53
656.904	57.59
657.233	57.61
657.561	57.65
657.89	57.69
658.218	57.69
658.547	57.68
658.875	57.69
659.203	57.69
659.532	57.67
659.86	57.73
660.188	57.77
660.516	57.81
660.844	57.8
661.172	57.84
661.5	57.82
661.828	57.87
662.156	57.85
662.484	57.78
662.811	57.77
663.139	57.74
663.467	57.72
663.794	57.7
664.122	57.64
664.45	57.53
664.777	57.44
665.104	57.42
665.432	57.42
665.759	57.4
666.086	57.41
666.414	57.44
666.741	57.39
667.068	57.33
667.395	57.38
667.722	57.35
668.049	57.36
668.376	57.4
668.703	57.44
669.03	57.47
669.357	57.49
669.683	57.48
670.01	57.49
670.337	57.47
670.663	57.48
670.99	57.52
671.317	57.58
671.643	57.65
671.969	57.71
672.296	57.76
672.622	57.84
672.948	57.82
673.275	57.76
673.601	57.8
673.927	57.87
674.253	57.87
674.579	57.95
674.905	57.94
675.231	57.96
675.557	57.88
675.883	57.96
676.209	58.01
676.534	58.04
676.86	58.01
677.186	58.02
677.511	58.01
677.837	58.12
678.162	58.15
678.488	58.24
678.813	58.29
679.139	58.21
679.464	58.14
679.789	58.16
680.114	58.14
680.44	58.18
680.765	58.12
681.09	58.17
681.415	58.17
681.74	58.21
682.065	58.16
682.39	58.21
682.714	58.08
683.039	58.09
683.364	58.09
683.689	58.08
684.013	58.11
684.338	58.1
684.662	58.06
684.987	58.13
685.311	58.01
685.636	57.97
685.96	58.09
686.284	58.15
686.608	58.07
686.933	58.13
687.257	58.11
687.581	58.12
687.905	58.14
688.229	58.03
688.553	57.96
688.877	58.07
689.201	58.02
689.524	58.06
689.848	58.12
690.172	58.08
690.496	58.16
690.819	58.1
691.143	58.09
691.466	58.02
691.79	57.96
692.113	58.06
692.436	58.08
692.76	58.06
693.083	58.02
693.406	58.14
693.729	58.19
694.053	58.14
694.376	58.11
694.699	58.21
695.022	58.41
695.344	58.42
695.667	58.4
695.99	58.44
696.313	58.48
696.636	58.4
696.958	58.4
697.281	58.34
697.604	58.37
697.926	58.56
698.249	58.54
698.571	58.52
698.893	58.5
699.216	58.42
699.538	58.4
699.86	58.34
700.182	58.27
700.504	58.17
700.827	58.23
701.149	58.3
701.471	58.21
701.793	58.13
702.114	58.12
702.436	58.13
702.758	58.02
703.08	58.02
703.401	58.03
703.723	58
704.045	58.05
704.366	58.07
704.688	57.89
705.009	57.94
705.331	58.02
705.652	57.93
705.973	58
706.294	58.16
706.616	58.27
706.937	58.27
707.258	58.36
707.579	58.4
707.9	58.41
708.221	58.5
708.542	58.41
708.863	58.54
709.183	58.52
709.504	58.7
709.825	58.63
710.145	58.61
710.466	58.66
710.787	58.59
711.107	58.54
711.427	58.51
711.748	58.49
712.068	58.41
712.388	58.44
712.709	58.47
713.029	58.48
713.349	58.4
713.669	58.41
713.989	58.49
714.309	58.52
714.629	58.52
714.949	58.39
715.269	58.52
715.589	58.45
715.908	58.43
716.228	58.43
716.548	58.46
716.867	58.46
717.187	58.49
717.506	58.58
717.826	58.63
718.145	58.51
718.465	58.66
718.784	58.64
719.103	58.72
719.422	58.85
719.741	58.73
720.061	58.88
720.38	58.97
720.699	58.89
721.018	58.91
721.336	58.88
721.655	59.02
721.974	58.94
722.293	59.02
722.612	59.19
722.93	59.17
723.249	59.27
723.567	59.33
723.886	59.31
724.204	59.26
724.523	59.3
724.841	59.64
725.159	59.66
725.477	59.84
725.796	59.86
726.114	59.89
726.432	60.1
726.75	60.08
727.068	60.04
727.386	60.18
727.704	60.14
728.022	60.12
728.339	60
728.657	60.13
728.975	60.14
729.292	60.04
729.61	60.06
729.928	60.22
730.245	60.13
730.562	60.25
730.88	60.37
731.197	60.38
731.514	60.36
731.832	60.42
732.149	60.46
732.466	60.54
732.783	60.39
733.1	60.42
733.417	60.5
733.734	60.8
734.051	60.91
734.368	60.96
734.684	61.14
735.001	61.26
735.318	61.33
735.634	61.33
735.951	61.43
736.268	61.5
736.584	61.51
736.9	61.81
737.217	61.86
737.533	61.99
737.849	62.01
738.166	61.98
738.482	61.95
738.798	62.07
739.114	62.15
739.43	62.4
739.746	62.26
740.062	62.34
740.378	62.17
740.693	62.07
741.009	62.24
741.325	62.34
741.641	62.38
741.956	62.44
742.272	62.6
742.587	62.66
742.903	62.82
743.218	62.85
743.533	62.77
743.849	62.83
744.164	62.85
744.479	62.91
744.794	62.99
745.109	63.06
745.424	63.07
745.739	63.19
746.054	63.24
746.369	63.38
746.684	63.47
746.999	63.63
747.313	63.64
747.628	63.7
747.943	63.57
748.257	63.52
748.572	63.49
748.886	63.46
749.201	63.44
749.515	63.37
749.829	63.46
750.144	63.58
750.458	63.56
750.772	63.58
751.086	63.73
751.4	63.99
751.714	64.13
752.028	64.3
752.342	64.2
752.656	64.31
752.97	64.27
753.284	64.4
753.597	64.4
753.911	64.64
754.225	64.61
754.538	64.7
754.852	65.02
755.165	65.17
755.478	65.23
755.792	65.23
756.105	65.31
756.418	65.15
756.731	65.29
757.045	65.22
757.358	65.27
757.671	65.21
757.984	65.08
758.297	64.97
758.609	64.89
758.922	64.77
759.235	64.7
759.548	64.88
759.86	64.8
760.173	64.72
760.486	64.61
760.798	64.61
761.111	64.69
761.423	64.72
761.735	64.69
762.048	64.74
762.36	64.71
762.672	64.75
762.984	64.87
763.296	64.73
763.608	64.99
763.92	65.01
764.232	65.12
764.544	65.14
764.856	65.26
765.168	65.29
765.48	65.44
765.791	65.38
766.103	65.5
766.414	65.48
766.726	65.6
767.037	65.78
767.349	65.93
767.66	65.97
767.972	65.88
768.283	66.06
768.594	66.15
768.905	66.33
769.216	66.37
769.527	66.4
769.838	66.84
770.149	67.05
770.46	67.14
770.771	67.3
771.082	67.38
771.393	67.4
771.703	67.24
772.014	67.41
772.324	67.84
772.635	67.71
772.945	67.88
773.256	67.92
773.566	67.88
773.877	67.91
774.187	68.13
774.497	68.14
774.807	68
775.117	68.16
775.427	68.34
775.737	68.5
776.047	68.67
776.357	68.51
776.667	68.14
776.977	68.22
777.287	68.08
777.596	68.17
777.906	67.98
778.216	68.3
778.525	68.36
778.835	68.3
779.144	68.37
779.453	68.74
779.763	68.57
780.072	68.65
780.381	68.55
780.69	68.21
781	68.33
781.309	68.38
781.618	68.24
781.927	68.44
782.235	68.55
782.544	68.89
782.853	68.59
783.162	68.47
783.471	68.61
783.779	68.62
784.088	68.73
784.396	69.07
784.705	69.07
785.013	68.9
785.322	68.79
785.63	68.78
785.938	68.1
786.246	68.09
786.554	67.72
786.863	67.97
787.171	68.21
787.479	68.41
787.787	68.43
788.094	68.48
788.402	68.37
788.71	68.27
789.018	67.88
789.326	68.09
789.633	68.41
789.941	68.32
790.248	68.2
790.556	68.07
790.863	67.67
791.171	67.48
791.478	67.57
791.785	67.47
792.092	67.51
792.399	68
792.707	68.39
793.014	68.83
793.321	68.51
793.628	68.26
793.934	67.97
794.241	68.01
794.548	67.89
794.855	67.72
795.161	67.44
795.468	67.49
795.775	67.67
796.081	67.55
796.388	67.61
796.694	67.84
797	68.06
797.307	68.42
797.613	68.42
797.919	68.55
798.225	68.44
798.531	68.45
798.837	68.37
799.143	68.25
799.449	68.31
799.755	68.54
800.061	68.92
800.367	69.31
800.672	69.38
800.978	69.57
801.284	70.1
801.589	70.46
801.895	70.4
802.2	70.27
802.506	70.35
802.811	69.93
803.116	69.86
803.421	69.79
803.727	69.88
804.032	69.92
804.337	69.42
804.642	69.73
804.947	70.02
805.252	70.37
805.556	70.71
805.861	70.59
806.166	70.67
806.471	70.69
806.775	70.41
807.08	70.44
807.384	70.52
807.689	69.81
807.993	69.88
808.298	70.12
808.602	70.24
808.906	70.37
809.211	71.02
809.515	71.35
809.819	71.23
810.123	71.45
810.427	71.91
810.731	72.29
811.035	72.46
811.338	72.21
811.642	72.12
811.946	71.98
812.25	72.04
812.553	71.7
812.857	71.62
813.16	72.22
813.464	72.43
813.767	72.78
814.07	73.2
814.374	73.04
814.677	72.74
814.98	72.64
815.283	72.58
815.586	72.26
815.889	71.82
816.192	72.06
816.495	71.81
816.798	71.36
817.101	71.35
817.404	70.94
817.706	71.01
818.009	70.48
818.312	69.94
818.614	69.42
818.917	68.93
819.219	68.28
819.521	67.67
819.824	67.11
820.126	66.34
820.428	65.87
820.73	65.63
821.032	65.47
821.334	65.36
821.636	65.15
821.938	65.08
822.24	65.01
822.542	65
822.844	64.93
823.145	64.96
823.447	64.89
823.749	64.88
824.05	64.62
824.352	64.6
824.653	64.6
824.955	64.6
825.256	64.66
825.557	64.71
825.858	64.6
826.16	64.54
826.461	64.68
826.762	64.84
827.063	64.94
827.364	65.07
827.665	65.1
827.965	65.3
828.266	65.53
828.567	65.82
828.868	65.82
829.168	65.9
829.469	65.84
829.769	66.09
830.07	66.12
830.37	66.54
830.67	66.63
830.971	66.79
831.271	67.26
831.571	67.3
831.871	67.1
832.171	67.34
832.471	67.95
832.771	67.93
833.071	67.94
833.371	68
833.671	67.97
833.971	68.27
834.27	68.42
834.57	68.18
834.869	67.96
835.169	67.95
835.468	68.06
835.768	68.11
836.067	68.12
836.367	68.29
836.666	68.57
836.965	68.76
837.264	68.89
837.563	68.54
837.862	68.68
838.161	69.06
838.46	69.23
838.759	68.89
839.058	69.47
839.356	70.11
839.655	70.67
839.954	71.45
840.252	71.61
840.551	71.74
840.849	72.17
841.148	72.6
841.446	72.99
841.744	73.29
842.043	73.86
842.341	74.3
842.639	74.17
842.937	74.3
843.235	74.77
843.533	75.33
843.831	76.39
844.129	76.84
844.427	78.28
844.724	79.54
845.022	80.65
845.32	80.63
845.617	81.59
845.915	81.29
846.212	80.89
846.51	81.51
846.807	81.27
847.104	81.24
847.402	81.4
847.699	80.87
847.996	80.55
848.293	80.51
848.59	79.72
848.887	80.14
849.184	79.69
849.481	79.25
849.778	79.37
850.074	78.98
850.371	78.56
850.668	77.97
850.964	77.54
851.261	77.27
851.557	77.51
851.854	76.91
852.15	77.28
852.446	77.59
852.743	76.39
853.039	76.63
853.335	77.69
853.631	77.84
853.927	78.77
854.223	79.35
854.519	79.55
854.815	79.98
855.111	80.41
855.406	81.45
855.702	81.67
855.998	81.62
856.293	81.73
856.589	82.49
856.884	82.28
857.18	82.47
857.475	82.41
857.77	82.09
858.066	81.92
858.361	82.15
858.656	82.86
858.951	83.5
859.246	83.81
859.541	82.48
859.836	82.23
860.131	81.39
860.426	81.38
860.72	81.53
861.015	81.25
861.31	80.48
861.604	80.33
861.899	80.95
862.193	80.3
862.487	80.39
862.782	80.9
863.076	81.5
863.37	80.78
863.664	80.53
863.959	79.77
864.253	79.21
864.547	79.11
864.841	77.86
865.135	78.02
865.428	77.41
865.722	77.06
866.016	77.16
866.31	77.04
866.603	76.42
866.897	75.28
867.19	75.62
867.484	75.93
867.777	74.97
868.07	74.86
868.364	75.47
868.657	75.1
868.95	74.45
869.243	74.4
869.536	74.34
869.829	74.82
870.122	76.81
870.415	76.59
870.708	76.5
871	76.53
871.293	76.14
871.586	76.31
871.878	76.46
872.171	75.83
872.463	76.26
872.756	76.41
873.048	76.88
873.341	76.39
873.633	76.29
873.925	76.88
874.217	76.53
874.509	75.88
874.801	76.12
875.093	75.96
875.385	75.33
875.677	75.31
875.969	73.82
