Data from pcis_p_m3_p4_Reflection_2.txt Node
Date: Wed Jul 12 17:46:53 ART 2017
User: rodoncho
Spectrometer: USB2E3644
Trigger mode: 4
Integration Time (sec): 6.000000E-2
Scans to average: 10
Electric dark correction enabled: true
Nonlinearity correction enabled: false
Boxcar width: 10
XAxis mode: Wavelengths
Number of Pixels in Spectrum: 2048
>>>>>Begin Spectral Data<<<<<
178.315	53.57
178.696	40.74
179.076	17.19
179.457	48.48
179.838	75
180.218	116.67
180.599	175
180.979	-266.67
181.36	-162.5
181.74	-91.67
182.121	-39.58
182.501	132.76
182.881	133.06
183.262	126.92
183.642	-93.75
184.022	77.63
184.402	88.67
184.783	105.45
185.163	123.91
185.543	123.72
185.923	128.15
186.303	125
186.683	117.94
187.063	114.14
187.443	117.46
187.823	125.44
188.203	125.59
188.583	125.47
188.963	122.53
189.343	127.19
189.723	127.86
190.102	125.18
190.482	123.75
190.862	124.17
191.242	118.99
191.621	114.16
192.001	111.93
192.38	114.73
192.76	110.71
193.14	112.04
193.519	111.73
193.898	110.38
194.278	108.67
194.657	109.06
195.037	108.69
195.416	107.2
195.795	106.85
196.175	106.9
196.554	106.2
196.933	105.93
197.312	105.42
197.692	106.5
198.071	108.83
198.45	107.88
198.829	106.57
199.208	107.43
199.587	109.91
199.966	108.94
200.345	107.96
200.724	108.34
201.103	105.89
201.482	106.46
201.86	106.16
202.239	104.61
202.618	102.72
202.997	102.61
203.375	104.85
203.754	103.58
204.133	103.08
204.511	102.08
204.89	102.63
205.269	101.12
205.647	100.84
206.026	99.26
206.404	99
206.782	99.7
207.161	98.28
207.539	95.77
207.918	96.56
208.296	96.77
208.674	97.27
209.052	98.22
209.431	98.16
209.809	99.33
210.187	100.43
210.565	102.43
210.943	101.37
211.321	99.73
211.699	100.27
212.077	100.27
212.455	99.74
212.833	99.81
213.211	101.6
213.589	101.14
213.967	102.78
214.345	103.22
214.722	103.27
215.1	106.14
215.478	108.28
215.855	108.98
216.233	109
216.611	109.2
216.988	107.83
217.366	105.68
217.743	105.67
218.121	106.77
218.498	106.37
218.876	108.11
219.253	109.39
219.631	109.14
220.008	110.52
220.385	112.37
220.762	112.91
221.14	112.07
221.517	112.37
221.894	111.78
222.271	112.42
222.648	112.31
223.025	109.64
223.402	108.73
223.78	108.52
224.157	107.73
224.533	107.04
224.91	108.09
225.287	109.82
225.664	109.4
226.041	106.99
226.418	106.86
226.795	106.57
227.171	107.31
227.548	107.87
227.925	107.89
228.301	108.45
228.678	107.95
229.055	108.5
229.431	109.35
229.808	109.65
230.184	109.36
230.561	109.69
230.937	110.81
231.313	110.65
231.69	111.26
232.066	112.52
232.442	114.04
232.819	115.11
233.195	114.33
233.571	115.68
233.947	117.65
234.323	118.96
234.699	119.63
235.075	120.23
235.451	121.6
235.827	122.16
236.203	123.19
236.579	123.52
236.955	123.03
237.331	123.16
237.707	125.51
238.083	127.95
238.459	132.62
238.834	139.75
239.21	144.93
239.586	149.66
239.961	153.86
240.337	155.42
240.713	157.08
241.088	161.14
241.464	164.35
241.839	170.08
242.215	177.18
242.59	189.36
242.965	208.68
243.341	251.57
243.716	318.28
244.091	431.62
244.467	650.84
244.842	1232.66
245.217	2626.72
245.592	6343.75
245.967	-7965.79
246.343	-6281.25
246.718	-75325
247.093	-12354.17
247.468	-4928.33
247.843	-3017.35
248.218	-1768.45
248.593	-1110.9
248.967	-779.21
249.342	-666.59
249.717	-654.13
250.092	-670.18
250.467	-768.81
250.841	-1036.21
251.216	-4454.41
251.591	1909.38
251.965	809.74
252.34	582.39
252.714	478.97
253.089	444.14
253.463	437.39
253.838	434.76
254.212	442.32
254.587	462.83
254.961	540.03
255.335	742.09
255.71	3466.3
256.084	-903.71
256.458	-384.47
256.832	-250.9
257.206	-210.92
257.581	-188.63
257.955	-175.96
258.329	-163.58
258.703	-152.24
259.077	-146.39
259.451	-141.34
259.825	-132.37
260.199	-126.18
260.572	-121.57
260.946	-117.55
261.32	-115.29
261.694	-111.9
262.068	-108.62
262.441	-105.77
262.815	-103.17
263.189	-103.92
263.562	-110.85
263.936	-127.11
264.309	-154.74
264.683	-193.06
265.056	-216.47
265.43	-223.64
265.803	-216.11
266.176	-214.48
266.55	-219.42
266.923	-205.08
267.296	-187.84
267.67	-175.51
268.043	-161.49
268.416	-149.6
268.789	-136.23
269.162	-119.78
269.535	-111.76
269.908	-106.66
270.281	-102.12
270.654	-102.81
271.027	-104.94
271.4	-106.52
271.773	-107.41
272.146	-107.18
272.519	-102.43
272.891	-98.63
273.264	-97.25
273.637	-97.46
274.01	-97.22
274.382	-95.14
274.755	-94.57
275.127	-93.67
275.5	-94.39
275.872	-95.03
276.245	-95.29
276.617	-96.7
276.99	-102.68
277.362	-104.56
277.734	-104.07
278.107	-103.39
278.479	-99.54
278.851	-94.26
279.223	-88.21
279.596	-84.47
279.968	-81.53
280.34	-81.43
280.712	-79.45
281.084	-75.35
281.456	-68.87
281.828	-63.81
282.2	-58.84
282.572	-55.11
282.944	-52.56
283.315	-50.8
283.687	-50.3
284.059	-49.96
284.431	-49.46
284.802	-48.8
285.174	-47.29
285.546	-46.39
285.917	-45.98
286.289	-44.7
286.66	-43.79
287.032	-44.04
287.403	-43.62
287.775	-43.08
288.146	-42.38
288.518	-41.9
288.889	-41.62
289.26	-42.35
289.632	-43.28
290.003	-45.08
290.374	-46.84
290.745	-47.56
291.116	-46.83
291.487	-45.17
291.858	-43.51
292.229	-42.46
292.6	-40.6
292.971	-39.54
293.342	-37.84
293.713	-35.1
294.084	-33.52
294.455	-32.9
294.826	-31.82
295.196	-31.63
295.567	-31.64
295.938	-31.45
296.308	-31.55
296.679	-30.85
297.05	-30.43
297.42	-29.43
297.791	-28.28
298.161	-27.12
298.532	-26.49
298.902	-26.2
299.272	-25.86
299.643	-25.58
300.013	-25.29
300.383	-25.01
300.754	-24.96
301.124	-25.09
301.494	-25.55
301.864	-25.57
302.234	-25.5
302.604	-25.85
302.974	-25.36
303.344	-25.13
303.714	-25.01
304.084	-23.95
304.454	-23.51
304.824	-22.86
305.194	-22.65
305.563	-22.12
305.933	-20.93
306.303	-19.62
306.673	-19.12
307.042	-18.35
307.412	-17.53
307.781	-16.26
308.151	-15.45
308.521	-14.65
308.89	-14.18
309.259	-13.61
309.629	-13.44
309.998	-13.45
310.368	-13.36
310.737	-13.22
311.106	-12.97
311.475	-12.31
311.845	-12.32
312.214	-11.99
312.583	-11.67
312.952	-11.19
313.321	-10.79
313.69	-11.07
314.059	-11.57
314.428	-11.6
314.797	-11.94
315.166	-12.21
315.535	-12.64
315.904	-12.77
316.272	-12.77
316.641	-12.82
317.01	-13.17
317.379	-13.28
317.747	-12.75
318.116	-12.04
318.484	-11.56
318.853	-10.98
319.221	-10.64
319.59	-10.5
319.958	-10.64
320.327	-10.42
320.695	-10.3
321.063	-10.22
321.432	-9.6
321.8	-9.34
322.168	-8.89
322.536	-8.2
322.905	-7.35
323.273	-6.81
323.641	-6.42
324.009	-6.36
324.377	-5.97
324.745	-5.52
325.113	-5.21
325.481	-4.94
325.849	-4.79
326.216	-4.47
326.584	-4.09
326.952	-3.92
327.32	-3.36
327.687	-2.92
328.055	-2.65
328.423	-2.52
328.79	-2.34
329.158	-2.38
329.525	-1.89
329.893	-1.62
330.26	-1.47
330.628	-1.55
330.995	-1.42
331.362	-1.22
331.73	-0.69
332.097	-0.44
332.464	-0.25
332.831	-0.02
333.199	0.49
333.566	0.83
333.933	0.78
334.3	0.72
334.667	0.99
335.034	1.14
335.401	1.34
335.768	1.35
336.135	1.58
336.502	1.83
336.868	2.11
337.235	2.32
337.602	2.6
337.969	2.9
338.335	3.29
338.702	3.58
339.069	3.64
339.435	3.74
339.802	3.87
340.168	4.03
340.535	4.26
340.901	4.19
341.267	4.31
341.634	4.55
342	4.89
342.366	5.13
342.733	5.3
343.099	5.45
343.465	5.78
343.831	5.96
344.197	6.17
344.563	6.42
344.929	6.63
345.295	6.84
345.661	7.01
346.027	7.04
346.393	7.09
346.759	7.11
347.125	7.18
347.491	7.41
347.856	7.59
348.222	7.63
348.588	7.75
348.953	7.8
349.319	7.93
349.684	8.08
350.05	8.15
350.415	8.33
350.781	8.49
351.146	8.61
351.512	8.71
351.877	8.93
352.242	8.94
352.608	9
352.973	9.12
353.338	9.18
353.703	9.35
354.068	9.51
354.433	9.9
354.798	10.09
355.164	10.18
355.528	10.26
355.893	10.34
356.258	10.42
356.623	10.47
356.988	10.64
357.353	10.77
357.718	10.85
358.082	10.84
358.447	10.83
358.812	10.93
359.176	11.09
359.541	11.05
359.905	11.15
360.27	11.16
360.634	11.2
360.999	11.3
361.363	11.38
361.728	11.46
362.092	11.44
362.456	11.41
362.821	11.41
363.185	11.46
363.549	11.62
363.913	11.76
364.277	11.87
364.641	11.85
365.005	11.85
365.369	11.87
365.733	11.93
366.097	12.1
366.461	12.06
366.825	12.03
367.189	12.1
367.553	12.19
367.916	12.41
368.28	12.41
368.644	12.51
369.007	12.53
369.371	12.59
369.734	12.61
370.098	12.78
370.461	12.9
370.825	12.99
371.188	13.07
371.552	13.14
371.915	13.21
372.278	13.35
372.642	13.42
373.005	13.56
373.368	13.62
373.731	13.63
374.094	13.75
374.457	13.82
374.82	13.83
375.183	13.81
375.546	13.78
375.909	13.88
376.272	13.81
376.635	13.82
376.998	13.86
377.361	13.96
377.723	13.95
378.086	13.99
378.449	14.11
378.811	14.21
379.174	14.28
379.537	14.35
379.899	14.39
380.262	14.43
380.624	14.39
380.987	14.42
381.349	14.47
381.711	14.48
382.074	14.53
382.436	14.57
382.798	14.66
383.16	14.66
383.522	14.68
383.884	14.78
384.247	14.84
384.609	14.86
384.971	14.86
385.333	14.89
385.695	14.94
386.056	14.91
386.418	14.85
386.78	14.88
387.142	14.87
387.504	14.88
387.865	14.9
388.227	14.93
388.589	14.94
388.95	14.91
389.312	14.92
389.673	14.93
390.035	14.96
390.396	14.93
390.758	14.92
391.119	14.89
391.48	14.86
391.842	14.87
392.203	14.87
392.564	14.87
392.925	14.88
393.286	14.84
393.648	14.81
394.009	14.79
394.37	14.71
394.731	14.71
395.092	14.67
395.452	14.67
395.813	14.66
396.174	14.66
396.535	14.62
396.896	14.6
397.257	14.59
397.617	14.57
397.978	14.55
398.338	14.61
398.699	14.64
399.06	14.62
399.42	14.59
399.781	14.55
400.141	14.5
400.501	14.44
400.862	14.4
401.222	14.38
401.582	14.35
401.943	14.37
402.303	14.38
402.663	14.36
403.023	14.31
403.383	14.28
403.743	14.27
404.103	14.31
404.463	14.35
404.823	14.33
405.183	14.32
405.543	14.32
405.903	14.28
406.262	14.25
406.622	14.25
406.982	14.24
407.342	14.23
407.701	14.22
408.061	14.23
408.42	14.22
408.78	14.23
409.139	14.24
409.499	14.25
409.858	14.19
410.217	14.18
410.577	14.17
410.936	14.16
411.295	14.12
411.655	14.03
412.014	13.93
412.373	13.87
412.732	13.78
413.091	13.71
413.45	13.65
413.809	13.58
414.168	13.48
414.527	13.36
414.886	13.27
415.245	13.17
415.603	13.09
415.962	12.97
416.321	12.89
416.679	12.78
417.038	12.65
417.397	12.56
417.755	12.48
418.114	12.4
418.472	12.32
418.831	12.28
419.189	12.24
419.547	12.19
419.906	12.12
420.264	12.07
420.622	12.03
420.981	11.97
421.339	11.92
421.697	11.9
422.055	11.87
422.413	11.84
422.771	11.83
423.129	11.82
423.487	11.83
423.845	11.81
424.203	11.82
424.56	11.82
424.918	11.83
425.276	11.84
425.634	11.85
425.991	11.86
426.349	11.83
426.707	11.83
427.064	11.83
427.422	11.85
427.779	11.86
428.137	11.84
428.494	11.85
428.851	11.85
429.209	11.81
429.566	11.79
429.923	11.74
430.28	11.71
430.637	11.67
430.995	11.63
431.352	11.6
431.709	11.56
432.066	11.57
432.423	11.55
432.78	11.51
433.137	11.48
433.493	11.43
433.85	11.42
434.207	11.35
434.564	11.32
434.92	11.26
435.277	11.21
435.634	11.18
435.99	11.12
436.347	11.06
436.703	11.03
437.06	11
437.416	10.98
437.773	10.94
438.129	10.9
438.485	10.88
438.841	10.84
439.198	10.83
439.554	10.8
439.91	10.78
440.266	10.75
440.622	10.73
440.978	10.7
441.334	10.65
441.69	10.62
442.046	10.57
442.402	10.52
442.758	10.46
443.113	10.42
443.469	10.39
443.825	10.38
444.181	10.35
444.536	10.34
444.892	10.32
445.247	10.31
445.603	10.29
445.958	10.29
446.314	10.28
446.669	10.25
447.025	10.23
447.38	10.21
447.735	10.19
448.09	10.18
448.446	10.17
448.801	10.16
449.156	10.17
449.511	10.17
449.866	10.2
450.221	10.23
450.576	10.24
450.931	10.24
451.286	10.24
451.641	10.23
451.995	10.2
452.35	10.18
452.705	10.16
453.06	10.15
453.414	10.13
453.769	10.13
454.123	10.11
454.478	10.08
454.832	10.05
455.187	9.99
455.541	9.93
455.896	9.86
456.25	9.81
456.604	9.77
456.958	9.73
457.313	9.69
457.667	9.68
458.021	9.67
458.375	9.66
458.729	9.64
459.083	9.63
459.437	9.64
459.791	9.63
460.145	9.62
460.499	9.63
460.852	9.59
461.206	9.59
461.56	9.57
461.914	9.57
462.267	9.55
462.621	9.56
462.974	9.57
463.328	9.59
463.681	9.61
464.035	9.62
464.388	9.62
464.742	9.62
465.095	9.61
465.448	9.6
465.801	9.6
466.155	9.58
466.508	9.57
466.861	9.52
467.214	9.5
467.567	9.5
467.92	9.49
468.273	9.48
468.626	9.47
468.979	9.46
469.332	9.41
469.684	9.4
470.037	9.42
470.39	9.42
470.743	9.42
471.095	9.42
471.448	9.44
471.8	9.45
472.153	9.46
472.505	9.46
472.858	9.46
473.21	9.44
473.562	9.42
473.915	9.42
474.267	9.43
474.619	9.42
474.971	9.39
475.324	9.36
475.676	9.35
476.028	9.33
476.38	9.32
476.732	9.31
477.084	9.31
477.436	9.27
477.787	9.24
478.139	9.21
478.491	9.17
478.843	9.13
479.195	9.06
479.546	8.98
479.898	8.85
480.249	8.74
480.601	8.66
480.952	8.61
481.304	8.57
481.655	8.55
482.007	8.55
482.358	8.55
482.709	8.54
483.061	8.53
483.412	8.52
483.763	8.49
484.114	8.47
484.465	8.44
484.816	8.42
485.167	8.41
485.518	8.41
485.869	8.41
486.22	8.41
486.571	8.42
486.922	8.44
487.272	8.47
487.623	8.49
487.974	8.49
488.324	8.49
488.675	8.49
489.025	8.48
489.376	8.48
489.726	8.49
490.077	8.49
490.427	8.5
490.778	8.51
491.128	8.54
491.478	8.58
491.828	8.62
492.179	8.65
492.529	8.68
492.879	8.68
493.229	8.68
493.579	8.67
493.929	8.66
494.279	8.64
494.629	8.64
494.979	8.67
495.328	8.72
495.678	8.78
496.028	8.84
496.378	8.87
496.727	8.88
497.077	8.9
497.426	8.89
497.776	8.89
498.125	8.89
498.475	8.88
498.824	8.88
499.174	8.88
499.523	8.9
499.872	8.9
500.221	8.89
500.571	8.91
500.92	8.92
501.269	8.93
501.618	8.93
501.967	8.95
502.316	8.95
502.665	8.95
503.014	8.94
503.363	8.94
503.711	8.93
504.06	8.92
504.409	8.89
504.758	8.87
505.106	8.85
505.455	8.84
505.803	8.83
506.152	8.81
506.5	8.83
506.849	8.83
507.197	8.84
507.546	8.86
507.894	8.86
508.242	8.88
508.59	8.88
508.939	8.9
509.287	8.9
509.635	8.91
509.983	8.92
510.331	8.92
510.679	8.92
511.027	8.93
511.375	8.95
511.723	8.98
512.07	9.01
512.418	9.05
512.766	9.07
513.114	9.08
513.461	9.1
513.809	9.09
514.156	9.08
514.504	9.09
514.851	9.07
515.199	9.07
515.546	9.05
515.893	9.04
516.241	9.04
516.588	9.05
516.935	9.04
517.282	9.06
517.63	9.07
517.977	9.06
518.324	9.07
518.671	9.08
519.018	9.07
519.365	9.09
519.711	9.08
520.058	9.09
520.405	9.09
520.752	9.1
521.099	9.1
521.445	9.11
521.792	9.09
522.138	9.08
522.485	9.08
522.832	9.1
523.178	9.13
523.524	9.15
523.871	9.14
524.217	9.14
524.563	9.09
524.91	9.02
525.256	8.98
525.602	8.93
525.948	8.9
526.294	8.89
526.64	8.87
526.986	8.87
527.332	8.9
527.678	8.91
528.024	8.93
528.37	8.94
528.716	8.94
529.061	8.96
529.407	8.98
529.753	8.98
530.098	8.96
530.444	8.95
530.789	8.95
531.135	8.96
531.48	8.99
531.826	9.02
532.171	9.08
532.516	9.14
532.862	9.2
533.207	9.24
533.552	9.26
533.897	9.3
534.242	9.31
534.587	9.31
534.932	9.32
535.277	9.31
535.622	9.33
535.967	9.36
536.312	9.37
536.657	9.39
537.001	9.44
537.346	9.48
537.691	9.49
538.035	9.47
538.38	9.44
538.724	9.43
539.069	9.43
539.413	9.43
539.758	9.44
540.102	9.47
540.446	9.48
540.791	9.51
541.135	9.53
541.479	9.54
541.823	9.55
542.167	9.57
542.512	9.57
542.856	9.56
543.2	9.55
543.543	9.56
543.887	9.56
544.231	9.59
544.575	9.61
544.919	9.67
545.262	9.74
545.606	9.81
545.95	9.86
546.293	9.91
546.637	9.94
546.98	9.96
547.324	9.99
547.667	10.02
548.011	10.04
548.354	10.06
548.697	10.07
549.04	10.1
549.384	10.13
549.727	10.15
550.07	10.21
550.413	10.27
550.756	10.3
551.099	10.35
551.442	10.36
551.785	10.42
552.128	10.42
552.47	10.43
552.813	10.45
553.156	10.47
553.499	10.47
553.841	10.49
554.184	10.51
554.526	10.54
554.869	10.58
555.211	10.6
555.554	10.63
555.896	10.67
556.238	10.69
556.581	10.72
556.923	10.8
557.265	10.84
557.607	10.86
557.949	10.91
558.291	10.95
558.633	10.99
558.975	11.01
559.317	11.04
559.659	11.08
560.001	11.11
560.343	11.15
560.685	11.24
561.026	11.26
561.368	11.3
561.71	11.32
562.051	11.36
562.393	11.43
562.734	11.48
563.076	11.54
563.417	11.62
563.759	11.69
564.1	11.72
564.441	11.77
564.782	11.83
565.124	11.87
565.465	11.93
565.806	11.98
566.147	12.05
566.488	12.13
566.829	12.2
567.17	12.28
567.511	12.34
567.851	12.42
568.192	12.55
568.533	12.62
568.874	12.73
569.214	12.82
569.555	12.91
569.895	12.99
570.236	13.07
570.576	13.13
570.917	13.22
571.257	13.32
571.598	13.42
571.938	13.51
572.278	13.64
572.618	13.76
572.959	13.83
573.299	13.92
573.639	14
573.979	14.12
574.319	14.21
574.659	14.33
574.999	14.4
575.339	14.49
575.678	14.61
576.018	14.72
576.358	14.85
576.698	14.95
577.037	15.06
577.377	15.19
577.716	15.33
578.056	15.45
578.395	15.57
578.735	15.7
579.074	15.83
579.413	15.94
579.753	16.03
580.092	16.2
580.431	16.36
580.77	16.5
581.109	16.63
581.448	16.76
581.787	16.84
582.126	16.97
582.465	17.09
582.804	17.21
583.143	17.36
583.482	17.46
583.82	17.59
584.159	17.73
584.498	17.83
584.836	17.94
585.175	18.06
585.514	18.27
585.852	18.39
586.19	18.57
586.529	18.7
586.867	18.87
587.205	19.02
587.544	19.16
587.882	19.28
588.22	19.4
588.558	19.51
588.896	19.64
589.234	19.79
589.572	19.9
589.91	20.04
590.248	20.16
590.586	20.32
590.924	20.45
591.262	20.58
591.599	20.75
591.937	20.86
592.275	20.97
592.612	21.02
592.95	21.15
593.287	21.31
593.625	21.47
593.962	21.61
594.299	21.73
594.637	21.81
594.974	21.91
595.311	22.03
595.648	22.14
595.985	22.23
596.322	22.31
596.659	22.42
596.996	22.49
597.333	22.56
597.67	22.6
598.007	22.66
598.344	22.73
598.681	22.79
599.017	22.89
599.354	22.99
599.691	23.08
600.027	23.19
600.364	23.25
600.7	23.33
601.037	23.44
601.373	23.57
601.71	23.73
602.046	23.85
602.382	23.93
602.718	24.03
603.054	24.13
603.391	24.19
603.727	24.23
604.063	24.29
604.399	24.34
604.735	24.41
605.071	24.49
605.406	24.57
605.742	24.64
606.078	24.74
606.414	24.83
606.749	24.92
607.085	24.94
607.421	24.99
607.756	25.06
608.092	25.11
608.427	25.14
608.762	25.13
609.098	25.15
609.433	25.18
609.768	25.18
610.104	25.18
610.439	25.21
610.774	25.27
611.109	25.31
611.444	25.34
611.779	25.39
612.114	25.38
612.449	25.4
612.784	25.43
613.118	25.41
613.453	25.38
613.788	25.37
614.123	25.37
614.457	25.4
614.792	25.42
615.126	25.4
615.461	25.4
615.795	25.44
616.13	25.48
616.464	25.51
616.798	25.58
617.132	25.67
617.467	25.72
617.801	25.7
618.135	25.74
618.469	25.76
618.803	25.74
619.137	25.79
619.471	25.78
619.805	25.79
620.139	25.81
620.472	25.81
620.806	25.83
621.14	25.87
621.473	25.88
621.807	25.87
622.141	25.9
622.474	25.9
622.808	25.88
623.141	25.94
623.474	25.97
623.808	25.98
624.141	26
624.474	26.03
624.807	26.1
625.141	26.14
625.474	26.16
625.807	26.17
626.14	26.18
626.473	26.24
626.806	26.29
627.138	26.3
627.471	26.32
627.804	26.37
628.137	26.37
628.469	26.41
628.802	26.41
629.135	26.38
629.467	26.42
629.8	26.45
630.132	26.44
630.465	26.45
630.797	26.46
631.129	26.46
631.461	26.41
631.794	26.42
632.126	26.36
632.458	26.38
632.79	26.41
633.122	26.43
633.454	26.4
633.786	26.36
634.118	26.32
634.45	26.36
634.781	26.32
635.113	26.34
635.445	26.36
635.777	26.41
636.108	26.48
636.44	26.49
636.771	26.5
637.103	26.47
637.434	26.46
637.765	26.46
638.097	26.47
638.428	26.47
638.759	26.43
639.09	26.44
639.422	26.43
639.753	26.36
640.084	26.35
640.415	26.39
640.746	26.4
641.077	26.49
641.407	26.52
641.738	26.52
642.069	26.53
642.4	26.49
642.73	26.48
643.061	26.4
643.392	26.4
643.722	26.43
644.053	26.46
644.383	26.44
644.713	26.37
645.044	26.34
645.374	26.39
645.704	26.4
646.034	26.45
646.365	26.5
646.695	26.56
647.025	26.56
647.355	26.55
647.685	26.52
648.015	26.49
648.344	26.47
648.674	26.47
649.004	26.5
649.334	26.56
649.663	26.56
649.993	26.62
650.323	26.6
650.652	26.58
650.982	26.64
651.311	26.61
651.64	26.69
651.97	26.71
652.299	26.71
652.628	26.77
652.958	26.7
653.287	26.7
653.616	26.71
653.945	26.74
654.274	26.71
654.603	26.76
654.932	26.75
655.261	26.78
655.589	26.85
655.918	26.86
656.247	26.9
656.576	26.93
656.904	26.95
657.233	27.04
657.561	27.06
657.89	27.01
658.218	27.06
658.547	27.1
658.875	27.14
659.203	27.16
659.532	27.09
659.86	27.12
660.188	27.12
660.516	27.08
660.844	27.07
661.172	27.11
661.5	27.1
661.828	27.1
662.156	27.05
662.484	26.96
662.811	26.96
663.139	26.88
663.467	26.88
663.794	26.9
664.122	26.82
664.45	26.77
664.777	26.77
665.104	26.78
665.432	26.61
665.759	26.53
666.086	26.49
666.414	26.57
666.741	26.54
667.068	26.52
667.395	26.54
667.722	26.53
668.049	26.52
668.376	26.45
668.703	26.46
669.03	26.46
669.357	26.51
669.683	26.49
670.01	26.53
670.337	26.54
670.663	26.51
670.99	26.51
671.317	26.58
671.643	26.62
671.969	26.57
672.296	26.69
672.622	26.71
672.948	26.76
673.275	26.71
673.601	26.79
673.927	26.77
674.253	26.78
674.579	26.86
674.905	26.9
675.231	27.01
675.557	27.04
675.883	27.15
676.209	27.12
676.534	27.15
676.86	27.22
677.186	27.28
677.511	27.29
677.837	27.35
678.162	27.25
678.488	27.16
678.813	27.22
679.139	27.24
679.464	27.23
679.789	27.22
680.114	27.29
680.44	27.26
680.765	27.3
681.09	27.27
681.415	27.2
681.74	27.16
682.065	27.15
682.39	27.14
682.714	27.01
683.039	27.04
683.364	27.05
683.689	26.96
684.013	26.85
684.338	26.78
684.662	26.76
684.987	26.82
685.311	26.91
685.636	26.83
685.96	26.78
686.284	26.83
686.608	26.84
686.933	26.76
687.257	26.76
687.581	26.79
687.905	26.83
688.229	26.89
688.553	26.94
688.877	26.88
689.201	26.85
689.524	26.88
689.848	26.86
690.172	26.89
690.496	26.84
690.819	26.91
691.143	26.92
691.466	26.84
691.79	26.84
692.113	26.74
692.436	26.8
692.76	26.78
693.083	26.69
693.406	26.57
693.729	26.58
694.053	26.63
694.376	26.59
694.699	26.61
695.022	26.64
695.344	26.71
695.667	26.89
695.99	27.11
696.313	27.19
696.636	27.3
696.958	27.3
697.281	27.37
697.604	27.36
697.926	27.38
698.249	27.47
698.571	27.47
698.893	27.44
699.216	27.41
699.538	27.45
699.86	27.46
700.182	27.45
700.504	27.39
700.827	27.34
701.149	27.34
701.471	27.33
701.793	27.25
702.114	27.14
702.436	27
702.758	26.79
703.08	26.68
703.401	26.47
703.723	26.38
704.045	26.31
704.366	26.3
704.688	26.29
705.009	26.31
705.331	26.28
705.652	26.41
705.973	26.45
706.294	26.5
706.616	26.5
706.937	26.51
707.258	26.6
707.579	26.69
707.9	26.75
708.221	26.78
708.542	26.78
708.863	26.8
709.183	26.83
709.504	26.92
709.825	26.96
710.145	27.08
710.466	27.05
710.787	26.94
711.107	26.98
711.427	26.96
711.748	26.93
712.068	26.98
712.388	26.97
712.709	26.99
713.029	26.99
713.349	27.01
713.669	27.07
713.989	27.13
714.309	27.17
714.629	27.14
714.949	27.04
715.269	27.06
715.589	27.11
715.908	27.12
716.228	27.08
716.548	27.05
716.867	26.96
717.187	27.01
717.506	27.16
717.826	27.13
718.145	27.1
718.465	27.11
718.784	27.17
719.103	27.18
719.422	27.19
719.741	27.18
720.061	27.26
720.38	27.39
720.699	27.36
721.018	27.26
721.336	27.29
721.655	27.49
721.974	27.69
722.293	27.78
722.612	27.75
722.93	27.9
723.249	28.11
723.567	28.34
723.886	28.42
724.204	28.42
724.523	28.52
724.841	28.69
725.159	28.77
725.477	28.92
725.796	29.04
726.114	29.27
726.432	29.4
726.75	29.52
727.068	29.64
727.386	29.78
727.704	29.92
728.022	30.12
728.339	30.17
728.657	30.18
728.975	30.28
729.292	30.32
729.61	30.35
729.928	30.37
730.245	30.39
730.562	30.52
730.88	30.73
731.197	30.85
731.514	30.96
731.832	31.08
732.149	31.13
732.466	31.21
732.783	31.2
733.1	31.26
733.417	31.42
733.734	31.42
734.051	31.44
734.368	31.68
734.684	31.8
735.001	31.91
735.318	31.94
735.634	31.97
735.951	32.19
736.268	32.36
736.584	32.57
736.9	32.66
737.217	32.73
737.533	32.89
737.849	33
738.166	33.01
738.482	33.08
738.798	33.1
739.114	33.25
739.43	33.4
739.746	33.49
740.062	33.45
740.378	33.52
740.693	33.66
741.009	33.7
741.325	33.63
741.641	33.71
741.956	33.98
742.272	34.16
742.587	34.39
742.903	34.39
743.218	34.44
743.533	34.53
743.849	34.58
744.164	34.44
744.479	34.53
744.794	34.79
745.109	34.73
745.424	34.95
745.739	35
746.054	35
746.369	35.1
746.684	35.22
746.999	35.35
747.313	35.44
747.628	35.49
747.943	35.64
748.257	35.72
748.572	35.66
748.886	35.64
749.201	35.59
749.515	35.57
749.829	35.66
750.144	35.81
750.458	35.96
750.772	36.14
751.086	36.06
751.4	35.87
751.714	35.98
752.028	35.99
752.342	36.11
752.656	36.16
752.97	36.13
753.284	36.22
753.597	36.31
753.911	36.42
754.225	36.39
754.538	36.41
754.852	36.55
755.165	36.7
755.478	36.84
755.792	36.95
756.105	37.11
756.418	37.04
756.731	37.05
757.045	37.13
757.358	37.32
757.671	37.62
757.984	37.83
758.297	38.07
758.609	38.17
758.922	38.22
759.235	38.3
759.548	38.24
759.86	38.23
760.173	38.19
760.486	37.92
760.798	37.91
761.111	37.83
761.423	37.66
761.735	37.56
762.048	37.47
762.36	37.35
762.672	37.35
762.984	37.44
763.296	37.46
763.608	37.58
763.92	37.6
764.232	37.57
764.544	37.54
764.856	37.62
765.168	37.61
765.48	37.61
765.791	37.73
766.103	38.03
766.414	38.11
766.726	38.17
767.037	38.39
767.349	38.56
767.66	38.86
767.972	39.27
768.283	39.6
768.594	39.96
768.905	40.29
769.216	40.46
769.527	40.69
769.838	41.03
770.149	41.14
770.46	41.34
770.771	41.46
771.082	41.88
771.393	41.81
771.703	42.09
772.014	42.31
772.324	42.45
772.635	42.5
772.945	42.86
773.256	43.17
773.566	43.55
773.877	43.8
774.187	43.85
774.497	43.73
774.807	43.72
775.117	43.82
775.427	44.01
775.737	44.19
776.047	44.19
776.357	44.1
776.667	44.22
776.977	44.09
777.287	44.3
777.596	44.27
777.906	44.45
778.216	44.43
778.525	44.45
778.835	44.32
779.144	44.29
779.453	44.33
779.763	44.45
780.072	44.62
780.381	44.8
780.69	44.8
781	45.11
781.309	45.4
781.618	45.57
781.927	45.6
782.235	45.83
782.544	46.23
782.853	46.62
783.162	46.61
783.471	46.79
783.779	46.78
784.088	46.6
784.396	46.64
784.705	46.52
785.013	46.61
785.322	46.68
785.63	46.83
785.938	46.48
786.246	46.28
786.554	46.09
786.863	46.05
787.171	46.1
787.479	46.22
787.787	46.04
788.094	46.01
788.402	46.05
788.71	46.19
789.018	45.86
789.326	45.66
789.633	45.79
789.941	45.86
790.248	45.73
790.556	45.95
790.863	46.13
791.171	46.44
791.478	46.8
791.785	47.05
792.092	47.25
792.399	47.73
792.707	47.96
793.014	48.15
793.321	48.1
793.628	47.96
793.934	47.74
794.241	47.78
794.548	47.89
794.855	47.85
795.161	47.97
795.468	47.8
795.775	47.97
796.081	48.02
796.388	48.09
796.694	48.27
797	48.42
797.307	48.41
797.613	48.3
797.919	48.06
798.225	48.15
798.531	48.08
798.837	47.96
799.143	47.97
799.449	47.8
799.755	47.76
800.061	48.27
800.367	48.24
800.672	48.42
800.978	48.5
801.284	48.62
801.589	48.38
801.895	48.71
802.2	48.87
802.506	48.82
802.811	48.67
803.116	48.61
803.421	48.65
803.727	48.76
804.032	48.92
804.337	49.18
804.642	49.23
804.947	49.3
805.252	49.44
805.556	49.6
805.861	49.89
806.166	50.15
806.471	50.11
806.775	50.42
807.08	50.74
807.384	50.41
807.689	50.53
807.993	50.79
808.298	51.04
808.602	51.12
808.906	50.97
809.211	51.24
809.515	51.62
809.819	51.62
810.123	51.6
810.427	51.47
810.731	51.47
811.035	51.4
811.338	51.49
811.642	51.55
811.946	51.66
812.25	51.66
812.553	51.59
812.857	51.68
813.16	51.54
813.464	51.25
813.767	51.86
814.07	51.79
814.374	51.6
814.677	51.57
814.98	51.21
815.283	51.54
815.586	51.65
815.889	51.56
816.192	51.55
816.495	51.59
816.798	51.46
817.101	50.98
817.404	50.65
817.706	50.17
818.009	49.77
818.312	48.93
818.614	47.79
818.917	46.49
819.219	45.07
819.521	43.78
819.824	42.46
820.126	41.16
820.428	40.32
820.73	39.72
821.032	39.24
821.334	38.91
821.636	38.53
821.938	38.38
822.24	38.26
822.542	38.15
822.844	38.06
823.145	38.03
823.447	37.93
823.749	37.81
824.05	37.7
824.352	37.6
824.653	37.65
824.955	37.69
825.256	37.74
825.557	37.77
825.858	37.88
826.16	37.99
826.461	38.4
826.762	38.77
827.063	39.11
827.364	39.51
827.665	39.94
827.965	40.47
828.266	40.86
828.567	41.19
828.868	41.44
829.168	41.78
829.469	42.04
829.769	42.43
830.07	42.75
830.37	43.01
830.67	43.14
830.971	43.43
831.271	43.8
831.571	44.08
831.871	44.48
832.171	44.68
832.471	45.19
832.771	45.16
833.071	45.4
833.371	45.69
833.671	45.78
833.971	46
834.27	46.12
834.57	45.91
834.869	46.06
835.169	46.31
835.468	45.98
835.768	45.96
836.067	46.05
836.367	46.42
836.666	46.9
836.965	47.65
837.264	48.03
837.563	48.75
837.862	49.7
838.161	50.22
838.46	51.1
838.759	51.63
839.058	52.64
839.356	53.57
839.655	54.61
839.954	55.3
840.252	55.68
840.551	56.26
840.849	56.77
841.148	56.73
841.446	56.68
841.744	57.62
842.043	58.1
842.341	58.6
842.639	58.84
842.937	59.02
843.235	59.56
843.533	60.71
843.831	61.68
844.129	62.37
844.427	63.27
844.724	63.39
845.022	64.44
845.32	64.71
845.617	64.66
845.915	64.1
846.212	64.32
846.51	65.08
846.807	64.86
847.104	65.13
847.402	66.04
847.699	67.09
847.996	67.24
848.293	67.34
848.59	67.86
848.887	68.67
849.184	69.14
849.481	69.13
849.778	69.16
850.074	69.1
850.371	68.84
850.668	69.57
850.964	70.5
851.261	70.94
851.557	70.4
851.854	70.02
852.15	70.6
852.446	71.21
852.743	70.6
853.039	70.88
853.335	71.44
853.631	71.8
853.927	72.04
854.223	72.43
854.519	73.21
854.815	72.8
855.111	72.47
855.406	72.67
855.702	72.32
855.998	71.9
856.293	71.51
856.589	71.83
856.884	72
857.18	72.93
857.475	72.72
857.77	73.34
858.066	73.96
858.361	74.05
858.656	73.42
858.951	74.46
859.246	74.9
859.541	74.55
859.836	73.67
860.131	73.33
860.426	73.3
860.72	73.03
861.015	72.79
861.31	72.66
861.604	73.1
861.899	74.04
862.193	73.8
862.487	73.85
862.782	73.43
863.076	72.36
863.37	70.74
863.664	71.68
863.959	72.79
864.253	73.32
864.547	73.66
864.841	73.97
865.135	73.18
865.428	72.72
865.722	72.49
866.016	72.49
866.31	71.78
866.603	70.87
866.897	69.45
867.19	69.2
867.484	69.23
867.777	68.82
868.07	67.99
868.364	67.71
868.657	67.95
868.95	68.89
869.243	70.28
869.536	71.58
869.829	70.46
870.122	70.1
870.415	70.23
870.708	70.4
871	71.32
871.293	71.65
871.586	71.95
871.878	72.77
872.171	73.33
872.463	72.86
872.756	73.37
873.048	73.53
873.341	73.76
873.633	74.12
873.925	74.03
874.217	74.33
874.509	75.02
874.801	75.18
875.093	74.38
875.385	73.36
875.677	71.69
875.969	71.81
