Data from pcis_p_h3_p4_Reflection_4.txt Node
Date: Wed Jul 12 17:54:16 ART 2017
User: rodoncho
Spectrometer: USB2E3644
Trigger mode: 4
Integration Time (sec): 6.000000E-2
Scans to average: 10
Electric dark correction enabled: true
Nonlinearity correction enabled: false
Boxcar width: 10
XAxis mode: Wavelengths
Number of Pixels in Spectrum: 2048
>>>>>Begin Spectral Data<<<<<
178.315	-16.37
178.696	-18.82
179.076	9.34
179.457	42.91
179.838	34.65
180.218	-14.77
180.599	-1342.86
180.979	-257.14
181.36	29.2
181.74	33.7
182.121	136.84
182.501	99.82
182.881	77.49
183.262	102.39
183.642	-148.39
184.022	64.09
184.402	68.17
184.783	72.15
185.163	67.41
185.543	73.06
185.923	77.04
186.303	78.64
186.683	78.8
187.063	85.16
187.443	88.79
187.823	91.13
188.203	92.46
188.583	93.97
188.963	96.12
189.343	91.22
189.723	92.1
190.102	91.87
190.482	91.17
190.862	87.86
191.242	90.19
191.621	91.78
192.001	91.86
192.38	93.58
192.76	94.75
193.14	96
193.519	96.49
193.898	99.71
194.278	99.88
194.657	97.46
195.037	97.68
195.416	98.55
195.795	98.2
196.175	99.5
196.554	99.52
196.933	101.25
197.312	104.6
197.692	104.41
198.071	106.37
198.45	108.68
198.829	110.25
199.208	112.28
199.587	113.82
199.966	114.01
200.345	115.05
200.724	114.32
201.103	114.65
201.482	114.36
201.86	111.51
202.239	111.62
202.618	111.87
202.997	111.28
203.375	111.17
203.754	110.94
204.133	108.89
204.511	108.6
204.89	108.42
205.269	107
205.647	107.4
206.026	106.99
206.404	106.31
206.782	105.96
207.161	103.86
207.539	102.6
207.918	101.72
208.296	100.85
208.674	101.43
209.052	101.59
209.431	102.05
209.809	101.62
210.187	101.12
210.565	102.31
210.943	104.25
211.321	104.87
211.699	105.06
212.077	103.8
212.455	103.04
212.833	102.16
213.211	102.05
213.589	102.38
213.967	103.44
214.345	103.81
214.722	102.85
215.1	102.53
215.478	100.96
215.855	101.33
216.233	102.15
216.611	101.25
216.988	100.88
217.366	100.6
217.743	100.45
218.121	99.65
218.498	99.15
218.876	96.1
219.253	96.08
219.631	96.69
220.008	98.23
220.385	99
220.762	99.72
221.14	101.19
221.517	100.45
221.894	100.01
222.271	99.01
222.648	98.99
223.025	100.23
223.402	101.13
223.78	100.98
224.157	99.79
224.533	101.2
224.91	102.75
225.287	102.57
225.664	104
226.041	105.36
226.418	104.84
226.795	106.94
227.171	107.02
227.548	107.87
227.925	108.66
228.301	110.91
228.678	111.02
229.055	110.07
229.431	110.81
229.808	110.26
230.184	111.07
230.561	112.5
230.937	111.42
231.313	111.93
231.69	111.63
232.066	112.7
232.442	113.34
232.819	113.21
233.195	113.96
233.571	113.41
233.947	113.77
234.323	114.45
234.699	113.46
235.075	113.05
235.451	112.31
235.827	112.37
236.203	111.53
236.579	111.97
236.955	112.13
237.331	113.01
237.707	115.79
238.083	118.54
238.459	122.34
238.834	129.02
239.21	134.25
239.586	139.86
239.961	143.68
240.337	144.4
240.713	145.69
241.088	147.25
241.464	151.03
241.839	157.59
242.215	166.61
242.59	182.12
242.965	209.57
243.341	264.89
243.716	358.68
244.091	526.71
244.467	800
244.842	1770.89
245.217	-17528.3
245.592	-4351.63
245.967	-3189.08
246.343	-4730.96
246.718	-11272.29
247.093	-19740.43
247.468	-19765.96
247.843	-3907.11
248.218	-1610.33
248.593	-929.87
248.967	-645.17
249.342	-556.57
249.717	-575.29
250.092	-616.81
250.467	-720.62
250.841	-1073.19
251.216	-8794.39
251.591	1383.21
251.965	698.75
252.34	540.96
252.714	466.05
253.089	387.18
253.463	375.52
253.838	380.26
254.212	405.65
254.587	445.39
254.961	522.37
255.335	779.73
255.71	2147.05
256.084	-1182.7
256.458	-433.53
256.832	-285.73
257.206	-226.64
257.581	-197.93
257.955	-183.43
258.329	-174.54
258.703	-166.66
259.077	-158.4
259.451	-150.73
259.825	-142.67
260.199	-135.87
260.572	-131.07
260.946	-124.17
261.32	-120.22
261.694	-115.84
262.068	-112.27
262.441	-109.71
262.815	-106.93
263.189	-107.26
263.562	-112.71
263.936	-128.61
264.309	-152.88
264.683	-181.59
265.056	-203.52
265.43	-213.07
265.803	-207.73
266.176	-195.44
266.55	-189.74
266.923	-181.37
267.296	-172.36
267.67	-163.49
268.043	-153.2
268.416	-142.18
268.789	-129.21
269.162	-116.87
269.535	-109.14
269.908	-104.64
270.281	-102.09
270.654	-103.18
271.027	-105.38
271.4	-107.78
271.773	-108.47
272.146	-107.62
272.519	-101.37
272.891	-97.73
273.264	-96.25
273.637	-95.47
274.01	-96.51
274.382	-95.85
274.755	-94.45
275.127	-93.64
275.5	-94.11
275.872	-93.3
276.245	-93.53
276.617	-96.68
276.99	-102.68
277.362	-105.97
277.734	-105.07
278.107	-100.53
278.479	-95.44
278.851	-91.22
279.223	-86.71
279.596	-84.63
279.968	-83.55
280.34	-84.77
280.712	-83.2
281.084	-77.74
281.456	-71.76
281.828	-66.72
282.2	-61.83
282.572	-58.39
282.944	-56.02
283.315	-54.55
283.687	-54
284.059	-52.96
284.431	-52.11
284.802	-50.77
285.174	-49.15
285.546	-47.68
285.917	-47.53
286.289	-46.1
286.66	-44.53
287.032	-44.41
287.403	-43.36
287.775	-42.77
288.146	-42.08
288.518	-41.84
288.889	-42.53
289.26	-43.88
289.632	-44.46
290.003	-45.77
290.374	-47.2
290.745	-47.76
291.116	-47.23
291.487	-46.49
291.858	-46.24
292.229	-45.38
292.6	-43.34
292.971	-42.33
293.342	-41.04
293.713	-39.25
294.084	-38.53
294.455	-38.21
294.826	-37.54
295.196	-37.72
295.567	-37.51
295.938	-37.3
296.308	-36.71
296.679	-35.32
297.05	-34.33
297.42	-33.86
297.791	-32.78
298.161	-31.61
298.532	-30.81
298.902	-30.47
299.272	-29.75
299.643	-28.94
300.013	-28.25
300.383	-28.37
300.754	-27.88
301.124	-27.99
301.494	-27.9
301.864	-27.8
302.234	-27.58
302.604	-27.47
302.974	-27.05
303.344	-27.27
303.714	-27.17
304.084	-26.9
304.454	-26.9
304.824	-26.09
305.194	-25.32
305.563	-24.63
305.933	-23.25
306.303	-21.96
306.673	-21.01
307.042	-20.31
307.412	-19.71
307.781	-18.9
308.151	-17.92
308.521	-17.43
308.89	-17.1
309.259	-16.8
309.629	-16.42
309.998	-16.1
310.368	-15.95
310.737	-15.81
311.106	-15.06
311.475	-14.27
311.845	-13.86
312.214	-13.4
312.583	-13.11
312.952	-12.87
313.321	-12.8
313.69	-13.07
314.059	-13.45
314.428	-13.68
314.797	-13.92
315.166	-14.4
315.535	-14.93
315.904	-15.44
316.272	-15.84
316.641	-15.97
317.01	-16.04
317.379	-16.16
317.747	-15.97
318.116	-15.56
318.484	-15.03
318.853	-14.76
319.221	-14.62
319.59	-14.48
319.958	-14.46
320.327	-14.47
320.695	-14.02
321.063	-13.64
321.432	-13.15
321.8	-12.78
322.168	-11.83
322.536	-10.99
322.905	-9.95
323.273	-9.3
323.641	-8.77
324.009	-8.41
324.377	-7.92
324.745	-7.69
325.113	-7.42
325.481	-7.01
325.849	-6.45
326.216	-5.88
326.584	-5.46
326.952	-5.2
327.32	-4.72
327.687	-4.28
328.055	-3.83
328.423	-3.67
328.79	-3.63
329.158	-3.63
329.525	-3.17
329.893	-3
330.26	-2.75
330.628	-2.43
330.995	-2.16
331.362	-1.56
331.73	-0.98
332.097	-0.61
332.464	-0.25
332.831	0.04
333.199	0.29
333.566	0.62
333.933	0.61
334.3	0.58
334.667	0.83
335.034	0.97
335.401	1.23
335.768	1.46
336.135	1.87
336.502	2.08
336.868	2.38
337.235	2.58
337.602	2.77
337.969	2.93
338.335	3.13
338.702	3.35
339.069	3.55
339.435	3.76
339.802	3.9
340.168	4.19
340.535	4.54
340.901	4.72
341.267	4.8
341.634	5.14
342	5.46
342.366	5.63
342.733	5.87
343.099	6.05
343.465	6.3
343.831	6.49
344.197	6.77
344.563	6.87
344.929	6.96
345.295	7.2
345.661	7.38
346.027	7.35
346.393	7.47
346.759	7.41
347.125	7.34
347.491	7.45
347.856	7.53
348.222	7.5
348.588	7.58
348.953	7.72
349.319	7.82
349.684	7.94
350.05	8.14
350.415	8.34
350.781	8.48
351.146	8.66
351.512	8.69
351.877	8.88
352.242	9.19
352.608	9.34
352.973	9.47
353.338	9.63
353.703	9.82
354.068	10
354.433	10.21
354.798	10.5
355.164	10.57
355.528	10.63
355.893	10.8
356.258	10.88
356.623	11
356.988	11.16
357.353	11.4
357.718	11.52
358.082	11.62
358.447	11.61
358.812	11.66
359.176	11.72
359.541	11.75
359.905	11.76
360.27	11.79
360.634	11.77
360.999	11.76
361.363	11.87
361.728	11.96
362.092	12
362.456	11.92
362.821	11.99
363.185	12.11
363.549	12.2
363.913	12.33
364.277	12.4
364.641	12.43
365.005	12.45
365.369	12.46
365.733	12.53
366.097	12.79
366.461	12.8
366.825	12.85
367.189	12.99
367.553	13.12
367.916	13.32
368.28	13.49
368.644	13.64
369.007	13.82
369.371	13.91
369.734	14.01
370.098	14.23
370.461	14.35
370.825	14.52
371.188	14.64
371.552	14.75
371.915	14.85
372.278	15.02
372.642	15.15
373.005	15.3
373.368	15.36
373.731	15.37
374.094	15.49
374.457	15.63
374.82	15.67
375.183	15.67
375.546	15.71
375.909	15.77
376.272	15.8
376.635	15.78
376.998	15.77
377.361	15.84
377.723	15.87
378.086	15.98
378.449	15.95
378.811	16.04
379.174	16.11
379.537	16.2
379.899	16.25
380.262	16.3
380.624	16.29
380.987	16.29
381.349	16.32
381.711	16.32
382.074	16.38
382.436	16.48
382.798	16.57
383.16	16.61
383.522	16.71
383.884	16.8
384.247	16.95
384.609	17.04
384.971	17.07
385.333	17.09
385.695	17.16
386.056	17.23
386.418	17.2
386.78	17.24
387.142	17.23
387.504	17.21
387.865	17.13
388.227	17.18
388.589	17.25
388.95	17.29
389.312	17.32
389.673	17.37
390.035	17.31
390.396	17.36
390.758	17.35
391.119	17.28
391.48	17.31
391.842	17.31
392.203	17.28
392.564	17.29
392.925	17.31
393.286	17.25
393.648	17.22
394.009	17.21
394.37	17.18
394.731	17.17
395.092	17.15
395.452	17.2
395.813	17.2
396.174	17.17
396.535	17.12
396.896	17.11
397.257	17.07
397.617	17.13
397.978	17.09
398.338	17.09
398.699	17.15
399.06	17.13
399.42	17.05
399.781	17.04
400.141	17.02
400.501	16.97
400.862	16.98
401.222	17.02
401.582	17.05
401.943	17.03
402.303	17.02
402.663	17.04
403.023	17.03
403.383	17.02
403.743	17.05
404.103	17.12
404.463	17.14
404.823	17.15
405.183	17.14
405.543	17.16
405.903	17.22
406.262	17.22
406.622	17.24
406.982	17.27
407.342	17.3
407.701	17.32
408.061	17.35
408.42	17.36
408.78	17.34
409.139	17.34
409.499	17.36
409.858	17.4
410.217	17.43
410.577	17.41
410.936	17.42
411.295	17.42
411.655	17.36
412.014	17.31
412.373	17.27
412.732	17.24
413.091	17.22
413.45	17.15
413.809	17.07
414.168	16.98
414.527	16.9
414.886	16.82
415.245	16.72
415.603	16.65
415.962	16.54
416.321	16.44
416.679	16.33
417.038	16.23
417.397	16.1
417.755	15.99
418.114	15.92
418.472	15.84
418.831	15.76
419.189	15.69
419.547	15.64
419.906	15.57
420.264	15.48
420.622	15.39
420.981	15.32
421.339	15.26
421.697	15.19
422.055	15.14
422.413	15.09
422.771	15.06
423.129	15.02
423.487	15.01
423.845	15
424.203	15
424.56	14.99
424.918	15.01
425.276	15.04
425.634	15.05
425.991	15.04
426.349	15.04
426.707	15.07
427.064	15.09
427.422	15.11
427.779	15.16
428.137	15.2
428.494	15.25
428.851	15.3
429.209	15.36
429.566	15.4
429.923	15.43
430.28	15.45
430.637	15.49
430.995	15.51
431.352	15.53
431.709	15.58
432.066	15.64
432.423	15.64
432.78	15.66
433.137	15.69
433.493	15.74
433.85	15.8
434.207	15.78
434.564	15.79
434.92	15.81
435.277	15.82
435.634	15.83
435.99	15.83
436.347	15.86
436.703	15.86
437.06	15.87
437.416	15.89
437.773	15.91
438.129	15.89
438.485	15.9
438.841	15.89
439.198	15.87
439.554	15.83
439.91	15.83
440.266	15.8
440.622	15.78
440.978	15.74
441.334	15.7
441.69	15.67
442.046	15.62
442.402	15.53
442.758	15.46
443.113	15.41
443.469	15.35
443.825	15.29
444.181	15.25
444.536	15.22
444.892	15.16
445.247	15.11
445.603	15.08
445.958	15.04
446.314	14.98
446.669	14.93
447.025	14.9
447.38	14.84
447.735	14.8
448.09	14.75
448.446	14.72
448.801	14.67
449.156	14.63
449.511	14.6
449.866	14.6
450.221	14.62
450.576	14.61
450.931	14.6
451.286	14.6
451.641	14.6
451.995	14.59
452.35	14.6
452.705	14.61
453.06	14.63
453.414	14.68
453.769	14.72
454.123	14.75
454.478	14.76
454.832	14.77
455.187	14.79
455.541	14.78
455.896	14.77
456.25	14.81
456.604	14.83
456.958	14.85
457.313	14.87
457.667	14.9
458.021	14.92
458.375	15
458.729	15.06
459.083	15.1
459.437	15.14
459.791	15.2
460.145	15.26
460.499	15.33
460.852	15.38
461.206	15.46
461.56	15.54
461.914	15.62
462.267	15.72
462.621	15.83
462.974	15.98
463.328	16.15
463.681	16.3
464.035	16.48
464.388	16.66
464.742	16.82
465.095	16.97
465.448	17.14
465.801	17.23
466.155	17.34
466.508	17.46
466.861	17.57
467.214	17.69
467.567	17.78
467.92	17.86
468.273	17.93
468.626	17.99
468.979	18.05
469.332	18.11
469.684	18.15
470.037	18.21
470.39	18.25
470.743	18.31
471.095	18.36
471.448	18.4
471.8	18.44
472.153	18.45
472.505	18.48
472.858	18.44
473.21	18.44
473.562	18.41
473.915	18.36
474.267	18.31
474.619	18.23
474.971	18.16
475.324	18.09
475.676	18.01
476.028	17.93
476.38	17.86
476.732	17.77
477.084	17.68
477.436	17.56
477.787	17.47
478.139	17.35
478.491	17.22
478.843	17.07
479.195	16.91
479.546	16.72
479.898	16.47
480.249	16.26
480.601	16.08
480.952	15.95
481.304	15.85
481.655	15.78
482.007	15.71
482.358	15.65
482.709	15.6
483.061	15.56
483.412	15.53
483.763	15.5
484.114	15.47
484.465	15.46
484.816	15.45
485.167	15.44
485.518	15.44
485.869	15.45
486.22	15.47
486.571	15.49
486.922	15.53
487.272	15.59
487.623	15.67
487.974	15.77
488.324	15.89
488.675	16
489.025	16.1
489.376	16.2
489.726	16.32
490.077	16.44
490.427	16.55
490.778	16.67
491.128	16.84
491.478	17.02
491.828	17.21
492.179	17.44
492.529	17.66
492.879	17.88
493.229	18.11
493.579	18.31
493.929	18.52
494.279	18.73
494.629	18.97
494.979	19.26
495.328	19.58
495.678	19.96
496.028	20.33
496.378	20.68
496.727	21.03
497.077	21.34
497.426	21.63
497.776	21.91
498.125	22.18
498.475	22.45
498.824	22.7
499.174	22.96
499.523	23.23
499.872	23.49
500.221	23.78
500.571	24.08
500.92	24.39
501.269	24.67
501.618	24.95
501.967	25.22
502.316	25.47
502.665	25.74
503.014	26
503.363	26.25
503.711	26.49
504.06	26.72
504.409	26.93
504.758	27.14
505.106	27.33
505.455	27.52
505.803	27.67
506.152	27.83
506.5	27.99
506.849	28.11
507.197	28.25
507.546	28.38
507.894	28.51
508.242	28.65
508.59	28.76
508.939	28.89
509.287	29.02
509.635	29.13
509.983	29.23
510.331	29.31
510.679	29.39
511.027	29.45
511.375	29.51
511.723	29.6
512.07	29.68
512.418	29.76
512.766	29.84
513.114	29.95
513.461	30.05
513.809	30.13
514.156	30.19
514.504	30.26
514.851	30.35
515.199	30.39
515.546	30.42
515.893	30.49
516.241	30.53
516.588	30.54
516.935	30.58
517.282	30.62
517.63	30.65
517.977	30.71
518.324	30.76
518.671	30.8
519.018	30.83
519.365	30.84
519.711	30.89
520.058	30.91
520.405	30.93
520.752	30.94
521.099	30.97
521.445	31.01
521.792	31.04
522.138	31.02
522.485	31.09
522.832	31.11
523.178	31.13
523.524	31.18
523.871	31.23
524.217	31.24
524.563	31.24
524.91	31.25
525.256	31.28
525.602	31.29
525.948	31.29
526.294	31.28
526.64	31.28
526.986	31.26
527.332	31.27
527.678	31.26
528.024	31.26
528.37	31.26
528.716	31.25
529.061	31.26
529.407	31.26
529.753	31.26
530.098	31.25
530.444	31.26
530.789	31.24
531.135	31.23
531.48	31.25
531.826	31.26
532.171	31.27
532.516	31.25
532.862	31.25
533.207	31.27
533.552	31.26
533.897	31.28
534.242	31.31
534.587	31.31
534.932	31.33
535.277	31.33
535.622	31.36
535.967	31.41
536.312	31.42
536.657	31.46
537.001	31.49
537.346	31.5
537.691	31.51
538.035	31.53
538.38	31.54
538.724	31.53
539.069	31.51
539.413	31.49
539.758	31.5
540.102	31.48
540.446	31.47
540.791	31.5
541.135	31.5
541.479	31.48
541.823	31.48
542.167	31.49
542.512	31.5
542.856	31.48
543.2	31.45
543.543	31.44
543.887	31.43
544.231	31.43
544.575	31.44
544.919	31.44
545.262	31.44
545.606	31.45
545.95	31.46
546.293	31.48
546.637	31.51
546.98	31.52
547.324	31.55
547.667	31.57
548.011	31.57
548.354	31.58
548.697	31.62
549.04	31.64
549.384	31.62
549.727	31.62
550.07	31.61
550.413	31.63
550.756	31.61
551.099	31.64
551.442	31.65
551.785	31.64
552.128	31.64
552.47	31.63
552.813	31.6
553.156	31.6
553.499	31.59
553.841	31.59
554.184	31.58
554.526	31.55
554.869	31.54
555.211	31.57
555.554	31.58
555.896	31.55
556.238	31.52
556.581	31.5
556.923	31.49
557.265	31.47
557.607	31.44
557.949	31.44
558.291	31.39
558.633	31.35
558.975	31.31
559.317	31.3
559.659	31.25
560.001	31.26
560.343	31.21
560.685	31.2
561.026	31.15
561.368	31.13
561.71	31.11
562.051	31.1
562.393	31.06
562.734	31.04
563.076	31
563.417	30.98
563.759	31
564.1	30.97
564.441	30.94
564.782	30.92
565.124	30.91
565.465	30.87
565.806	30.84
566.147	30.87
566.488	30.83
566.829	30.81
567.17	30.78
567.511	30.78
567.851	30.72
568.192	30.71
568.533	30.66
568.874	30.63
569.214	30.57
569.555	30.54
569.895	30.48
570.236	30.46
570.576	30.4
570.917	30.37
571.257	30.35
571.598	30.33
571.938	30.29
572.278	30.25
572.618	30.24
572.959	30.23
573.299	30.18
573.639	30.16
573.979	30.12
574.319	30.1
574.659	30.07
574.999	30.06
575.339	30.04
575.678	30.06
576.018	30.01
576.358	30
576.698	29.97
577.037	29.97
577.377	29.96
577.716	29.97
578.056	29.93
578.395	29.9
578.735	29.88
579.074	29.85
579.413	29.81
579.753	29.82
580.092	29.81
580.431	29.84
580.77	29.8
581.109	29.85
581.448	29.83
581.787	29.79
582.126	29.8
582.465	29.77
582.804	29.74
583.143	29.72
583.482	29.71
583.82	29.68
584.159	29.62
584.498	29.59
584.836	29.55
585.175	29.49
585.514	29.44
585.852	29.44
586.19	29.46
586.529	29.48
586.867	29.44
587.205	29.4
587.544	29.4
587.882	29.41
588.22	29.39
588.558	29.37
588.896	29.4
589.234	29.36
589.572	29.36
589.91	29.29
590.248	29.3
590.586	29.24
590.924	29.24
591.262	29.23
591.599	29.23
591.937	29.26
592.275	29.27
592.612	29.28
592.95	29.24
593.287	29.23
593.625	29.2
593.962	29.19
594.299	29.19
594.637	29.15
594.974	29.18
595.311	29.14
595.648	29.14
595.985	29.15
596.322	29.16
596.659	29.16
596.996	29.15
597.333	29.15
597.67	29.16
598.007	29.15
598.344	29.16
598.681	29.11
599.017	29.07
599.354	29.06
599.691	29.09
600.027	29.06
600.364	29.07
600.7	29.11
601.037	29.14
601.373	29.14
601.71	29.17
602.046	29.16
602.382	29.16
602.718	29.16
603.054	29.12
603.391	29.08
603.727	29.07
604.063	29.05
604.399	29
604.735	28.99
605.071	29
605.406	28.97
605.742	29
606.078	29
606.414	28.99
606.749	28.99
607.085	29.01
607.421	28.98
607.756	28.96
608.092	28.93
608.427	28.88
608.762	28.81
609.098	28.72
609.433	28.68
609.768	28.64
610.104	28.58
610.439	28.58
610.774	28.55
611.109	28.55
611.444	28.55
611.779	28.56
612.114	28.54
612.449	28.51
612.784	28.45
613.118	28.42
613.453	28.42
613.788	28.33
614.123	28.25
614.457	28.18
614.792	28.14
615.126	28.06
615.461	28.06
615.795	28.03
616.13	28.04
616.464	28.02
616.798	27.96
617.132	28
617.467	27.97
617.801	27.95
618.135	27.96
618.469	27.94
618.803	27.89
619.137	27.86
619.471	27.84
619.805	27.89
620.139	27.87
620.472	27.78
620.806	27.81
621.14	27.79
621.473	27.77
621.807	27.72
622.141	27.74
622.474	27.72
622.808	27.72
623.141	27.74
623.474	27.77
623.808	27.85
624.141	27.83
624.474	27.84
624.807	27.85
625.141	27.86
625.474	27.89
625.807	27.88
626.14	27.91
626.473	27.97
626.806	27.95
627.138	27.95
627.471	28.01
627.804	27.97
628.137	28.03
628.469	28.03
628.802	28.04
629.135	28
629.467	27.95
629.8	27.95
630.132	27.95
630.465	27.92
630.797	27.87
631.129	27.88
631.461	27.87
631.794	27.88
632.126	27.84
632.458	27.84
632.79	27.87
633.122	27.84
633.454	27.84
633.786	27.8
634.118	27.79
634.45	27.75
634.781	27.77
635.113	27.76
635.445	27.78
635.777	27.75
636.108	27.76
636.44	27.79
636.771	27.79
637.103	27.74
637.434	27.69
637.765	27.77
638.097	27.79
638.428	27.79
638.759	27.79
639.09	27.78
639.422	27.73
639.753	27.68
640.084	27.66
640.415	27.58
640.746	27.58
641.077	27.6
641.407	27.62
641.738	27.61
642.069	27.56
642.4	27.52
642.73	27.52
643.061	27.51
643.392	27.53
643.722	27.56
644.053	27.58
644.383	27.63
644.713	27.54
645.044	27.49
645.374	27.47
645.704	27.4
646.034	27.46
646.365	27.47
646.695	27.47
647.025	27.49
647.355	27.52
647.685	27.52
648.015	27.54
648.344	27.59
648.674	27.56
649.004	27.58
649.334	27.68
649.663	27.7
649.993	27.73
650.323	27.68
650.652	27.64
650.982	27.64
651.311	27.62
651.64	27.58
651.97	27.6
652.299	27.6
652.628	27.59
652.958	27.51
653.287	27.55
653.616	27.55
653.945	27.55
654.274	27.48
654.603	27.46
654.932	27.44
655.261	27.39
655.589	27.44
655.918	27.48
656.247	27.52
656.576	27.56
656.904	27.59
657.233	27.65
657.561	27.7
657.89	27.69
658.218	27.7
658.547	27.7
658.875	27.67
659.203	27.66
659.532	27.68
659.86	27.7
660.188	27.67
660.516	27.69
660.844	27.67
661.172	27.7
661.5	27.65
661.828	27.57
662.156	27.48
662.484	27.4
662.811	27.34
663.139	27.22
663.467	27.17
663.794	27.12
664.122	27.15
664.45	27.1
664.777	27.04
665.104	27.06
665.432	27.05
665.759	27.04
666.086	27
666.414	27.07
666.741	27.1
667.068	27.13
667.395	27.15
667.722	27.17
668.049	27.14
668.376	27.24
668.703	27.26
669.03	27.32
669.357	27.38
669.683	27.37
670.01	27.38
670.337	27.37
670.663	27.35
670.99	27.27
671.317	27.28
671.643	27.4
671.969	27.39
672.296	27.44
672.622	27.42
672.948	27.39
673.275	27.3
673.601	27.24
673.927	27.27
674.253	27.25
674.579	27.31
674.905	27.37
675.231	27.35
675.557	27.31
675.883	27.31
676.209	27.34
676.534	27.36
676.86	27.44
677.186	27.44
677.511	27.5
677.837	27.53
678.162	27.5
678.488	27.46
678.813	27.43
679.139	27.48
679.464	27.54
679.789	27.57
680.114	27.59
680.44	27.64
680.765	27.58
681.09	27.6
681.415	27.52
681.74	27.54
682.065	27.54
682.39	27.64
682.714	27.6
683.039	27.56
683.364	27.55
683.689	27.48
684.013	27.45
684.338	27.42
684.662	27.44
684.987	27.45
685.311	27.37
685.636	27.38
685.96	27.31
686.284	27.2
686.608	27.26
686.933	27.37
687.257	27.36
687.581	27.39
687.905	27.32
688.229	27.41
688.553	27.38
688.877	27.39
689.201	27.38
689.524	27.33
689.848	27.32
690.172	27.39
690.496	27.44
690.819	27.49
691.143	27.41
691.466	27.38
691.79	27.38
692.113	27.45
692.436	27.41
692.76	27.47
693.083	27.51
693.406	27.49
693.729	27.31
694.053	27.28
694.376	27.23
694.699	27.38
695.022	27.4
695.344	27.5
695.667	27.6
695.99	27.62
696.313	27.77
696.636	27.92
696.958	27.87
697.281	27.86
697.604	27.87
697.926	27.92
698.249	27.86
698.571	27.89
698.893	27.91
699.216	27.91
699.538	27.9
699.86	27.92
700.182	27.9
700.504	27.9
700.827	27.92
701.149	27.96
701.471	27.91
701.793	27.76
702.114	27.63
702.436	27.48
702.758	27.4
703.08	27.32
703.401	27.04
703.723	26.97
704.045	26.92
704.366	26.84
704.688	26.81
705.009	26.83
705.331	26.81
705.652	26.78
705.973	26.84
706.294	26.87
706.616	26.89
706.937	26.78
707.258	26.9
707.579	26.96
707.9	26.96
708.221	26.86
708.542	26.9
708.863	26.95
709.183	26.92
709.504	27.01
709.825	27.01
710.145	27.09
710.466	27.06
710.787	27.06
711.107	27.08
711.427	26.99
711.748	27.01
712.068	27.02
712.388	26.99
712.709	26.94
713.029	26.93
713.349	26.89
713.669	26.97
713.989	26.93
714.309	26.89
714.629	26.86
714.949	26.86
715.269	26.9
715.589	26.84
715.908	26.91
716.228	26.87
716.548	26.88
716.867	26.92
717.187	27.02
717.506	27.09
717.826	27.09
718.145	27.23
718.465	27.3
718.784	27.3
719.103	27.43
719.422	27.47
719.741	27.44
720.061	27.46
720.38	27.56
720.699	27.72
721.018	27.78
721.336	27.89
721.655	28
721.974	28.13
722.293	28.27
722.612	28.33
722.93	28.37
723.249	28.44
723.567	28.48
723.886	28.59
724.204	28.6
724.523	28.75
724.841	28.83
725.159	28.81
725.477	28.96
725.796	29.07
726.114	29.33
726.432	29.53
726.75	29.7
727.068	29.73
727.386	29.79
727.704	29.92
728.022	30.04
728.339	30.04
728.657	30.1
728.975	30.26
729.292	30.42
729.61	30.62
729.928	30.62
730.245	30.68
730.562	30.77
730.88	30.93
731.197	31.09
731.514	31.2
731.832	31.4
732.149	31.46
732.466	31.45
732.783	31.48
733.1	31.57
733.417	31.74
733.734	31.89
734.051	32
734.368	32.09
734.684	32.27
735.001	32.35
735.318	32.44
735.634	32.46
735.951	32.5
736.268	32.55
736.584	32.86
736.9	33.07
737.217	33.18
737.533	33.25
737.849	33.3
738.166	33.5
738.482	33.61
738.798	33.72
739.114	33.86
739.43	33.87
739.746	33.89
740.062	33.98
740.378	34.14
740.693	34.32
741.009	34.55
741.325	34.59
741.641	34.9
741.956	34.98
742.272	35.24
742.587	35.21
742.903	35.25
743.218	35.24
743.533	35.28
743.849	35.33
744.164	35.49
744.479	35.59
744.794	35.52
745.109	35.52
745.424	35.56
745.739	35.66
746.054	35.74
746.369	35.89
746.684	35.84
746.999	35.91
747.313	35.85
747.628	35.7
747.943	35.67
748.257	35.69
748.572	35.74
748.886	35.75
749.201	35.99
749.515	36.11
749.829	36.18
750.144	36.41
750.458	36.58
750.772	36.56
751.086	36.66
751.4	36.78
751.714	36.91
752.028	37.01
752.342	36.99
752.656	37.1
752.97	36.96
753.284	37.15
753.597	37.12
753.911	37.26
754.225	37.32
754.538	37.44
754.852	37.59
755.165	37.78
755.478	37.76
755.792	37.89
756.105	37.92
756.418	37.99
756.731	37.92
757.045	37.99
757.358	38.01
757.671	37.98
757.984	37.89
758.297	37.99
758.609	38.02
758.922	38.11
759.235	38.07
759.548	38.32
759.86	38.2
760.173	38.15
760.486	37.98
760.798	37.74
761.111	37.55
761.423	37.39
761.735	37.28
762.048	37.35
762.36	37.22
762.672	37.42
762.984	37.49
763.296	37.48
763.608	37.52
763.92	37.61
764.232	37.66
764.544	37.81
764.856	37.79
765.168	38
765.48	38.07
765.791	38.24
766.103	38.33
766.414	38.51
766.726	38.8
767.037	38.96
767.349	39.31
767.66	39.79
767.972	40.14
768.283	40.6
768.594	40.86
768.905	41.36
769.216	41.44
769.527	41.73
769.838	42.13
770.149	42.26
770.46	42.76
770.771	43.04
771.082	43.29
771.393	43.56
771.703	43.45
772.014	43.71
772.324	43.87
772.635	44.09
772.945	44.4
773.256	44.38
773.566	44.75
773.877	45.12
774.187	45.26
774.497	45.24
774.807	45.41
775.117	45.41
775.427	45.36
775.737	45.39
776.047	45.45
776.357	45.36
776.667	45.47
776.977	45.05
777.287	45.13
777.596	45.09
777.906	45.05
778.216	45.06
778.525	44.84
778.835	44.77
779.144	44.62
779.453	44.62
779.763	44.85
780.072	44.83
780.381	44.61
780.69	44.54
781	44.88
781.309	44.97
781.618	45.17
781.927	45.26
782.235	45.44
782.544	45.55
782.853	45.64
783.162	45.67
783.471	45.84
783.779	46.04
784.088	46.23
784.396	46.21
784.705	46.22
785.013	46.31
785.322	46.35
785.63	46.36
785.938	46.17
786.246	45.94
786.554	46.04
786.863	46.22
787.171	46.09
787.479	45.99
787.787	45.78
788.094	45.79
788.402	45.76
788.71	45.48
789.018	45.4
789.326	45.55
789.633	45.74
789.941	45.98
790.248	45.91
790.556	45.83
790.863	46.08
791.171	46.2
791.478	46.47
791.785	46.55
792.092	46.77
792.399	46.87
792.707	47.3
793.014	47.17
793.321	47.36
793.628	47.47
793.934	47.51
794.241	47.46
794.548	47.36
794.855	47.35
795.161	47.36
795.468	47.07
795.775	46.99
796.081	46.71
796.388	46.59
796.694	46.65
797	46.59
797.307	46.59
797.613	46.86
797.919	46.79
798.225	46.9
798.531	47.09
798.837	47.31
799.143	47.15
799.449	47.36
799.755	47.65
800.061	48.09
800.367	48.1
800.672	48.46
800.978	48.79
801.284	49.14
801.589	49.3
801.895	49.52
802.2	50.01
802.506	50.4
802.811	50.26
803.116	50.43
803.421	50.51
803.727	50.68
804.032	50.62
804.337	50.45
804.642	50.55
804.947	50.6
805.252	50.84
805.556	50.9
805.861	51.04
806.166	50.76
806.471	50.62
806.775	50.66
807.08	50.95
807.384	50.96
807.689	50.84
807.993	51.27
808.298	51.8
808.602	51.54
808.906	51.54
809.211	52.13
809.515	52.12
809.819	52.41
810.123	52.42
810.427	52.22
810.731	52.5
811.035	52.65
811.338	52.55
811.642	52.33
811.946	52.29
812.25	52.26
812.553	52.4
812.857	52.32
813.16	52.7
813.464	52.28
813.767	52.5
814.07	52.63
814.374	52.47
814.677	52.42
814.98	52.49
815.283	52.16
815.586	51.83
815.889	51.49
816.192	51.35
816.495	51.18
816.798	51.32
817.101	51.32
817.404	50.52
817.706	49.98
818.009	49.65
818.312	48.99
818.614	48.02
818.917	46.64
819.219	44.93
819.521	43.28
819.824	41.85
820.126	40.59
820.428	39.71
820.73	39.26
821.032	38.61
821.334	38.27
821.636	38.2
821.938	38.06
822.24	37.92
822.542	37.85
822.844	37.81
823.145	37.75
823.447	37.71
823.749	37.75
824.05	37.69
824.352	37.52
824.653	37.53
824.955	37.62
825.256	37.62
825.557	37.82
825.858	38.03
826.16	38.33
826.461	38.78
826.762	39.25
827.063	39.57
827.364	40.24
827.665	40.67
827.965	40.89
828.266	41.24
828.567	41.72
828.868	42.04
829.168	42.2
829.469	42.28
829.769	42.34
830.07	42.59
830.37	42.95
830.67	43.46
830.971	43.6
831.271	43.81
831.571	44.05
831.871	44.17
832.171	44.1
832.471	44.02
832.771	43.85
833.071	43.97
833.371	44.03
833.671	44.17
833.971	44.42
834.27	44.61
834.57	44.83
834.869	44.73
835.169	44.78
835.468	45.08
835.768	45.35
836.067	45.63
836.367	45.73
836.666	45.85
836.965	46.21
837.264	46.86
837.563	47.45
837.862	48.5
838.161	49.3
838.46	50.03
838.759	50.97
839.058	52.06
839.356	52.87
839.655	53.72
839.954	54.03
840.252	54.69
840.551	55.13
840.849	54.85
841.148	55.06
841.446	55.39
841.744	55.62
842.043	56.25
842.341	56.55
842.639	56.76
842.937	57.33
843.235	57.88
843.533	58.78
843.831	59.19
844.129	59.65
844.427	60.13
844.724	61.39
845.022	62.42
845.32	62.94
845.617	63.43
845.915	64.23
846.212	65.86
846.51	66.4
846.807	67.33
847.104	68.16
847.402	68.55
847.699	69.29
847.996	69.16
848.293	69.14
848.59	69.11
848.887	69.68
849.184	69.63
849.481	69.4
849.778	69.86
850.074	70.05
850.371	70.17
850.668	70.58
850.964	71.03
851.261	71.56
851.557	71.12
851.854	70.9
852.15	71.04
852.446	69.83
852.743	69.28
853.039	68.61
853.335	69.86
853.631	70.46
853.927	70.3
854.223	71.3
854.519	71
854.815	70.64
855.111	70.12
855.406	70.22
855.702	70.52
855.998	69.74
856.293	69.49
856.589	69.99
856.884	70.48
857.18	70.74
857.475	70.55
857.77	71.26
858.066	71.89
858.361	71.84
858.656	71.85
858.951	71.6
859.246	72.3
859.541	71.04
859.836	70.7
860.131	70.44
860.426	69.55
860.72	69.43
861.015	70.18
861.31	70.21
861.604	70.19
861.899	70.19
862.193	70.32
862.487	70.86
862.782	70.51
863.076	70.74
863.37	70.64
863.664	70.85
863.959	71.01
864.253	70.19
864.547	69.94
864.841	70.41
865.135	71.21
865.428	70.28
865.722	70.49
866.016	71.52
866.31	71.42
866.603	71.97
866.897	72.64
867.19	72.73
867.484	73.17
867.777	73.5
868.07	73.26
868.364	72.73
868.657	71.62
868.95	72.46
869.243	72.45
869.536	72.42
869.829	72.84
870.122	72.83
870.415	72.91
870.708	72.57
871	72.98
871.293	72.95
871.586	73.93
871.878	74.06
872.171	73.11
872.463	72.07
872.756	71.99
873.048	72.59
873.341	72.58
873.633	72.68
873.925	72.65
874.217	73.11
874.509	73.81
874.801	75.12
875.093	74.45
875.385	73.37
875.677	72.76
875.969	71.36
