Data from pcis_c_h2_p4_Reflection_3.txt Node
Date: Wed Jul 12 17:41:51 ART 2017
User: rodoncho
Spectrometer: USB2E3644
Trigger mode: 4
Integration Time (sec): 6.000000E-2
Scans to average: 10
Electric dark correction enabled: true
Nonlinearity correction enabled: false
Boxcar width: 10
XAxis mode: Wavelengths
Number of Pixels in Spectrum: 2048
>>>>>Begin Spectral Data<<<<<
178.315	455.43
178.696	259.37
179.076	250
179.457	291.75
179.838	423.68
180.218	331.82
180.599	1262.5
180.979	-600
181.36	29.04
181.74	77.33
182.121	62.5
182.501	111.54
182.881	132.74
183.262	164.09
183.642	475
184.022	33.52
184.402	73.02
184.783	73.41
185.163	86.46
185.543	96.97
185.923	116.18
186.303	111.8
186.683	109.52
187.063	108.84
187.443	111.34
187.823	112.48
188.203	110.84
188.583	114.59
188.963	115.38
189.343	112.53
189.723	117.1
190.102	115.74
190.482	120.68
190.862	123.42
191.242	125.71
191.621	128.25
192.001	131.22
192.38	133.17
192.76	127.61
193.14	122.36
193.519	115.2
193.898	110.97
194.278	111.62
194.657	111.28
195.037	110.61
195.416	110.04
195.795	112.28
196.175	112.86
196.554	113.84
196.933	115.06
197.312	115.34
197.692	113.53
198.071	112.63
198.45	111.21
198.829	112.2
199.208	112.1
199.587	110.51
199.966	109.28
200.345	109.43
200.724	110.59
201.103	112.99
201.482	115.35
201.86	117.03
202.239	117.84
202.618	118.8
202.997	119.25
203.375	118.25
203.754	116.86
204.133	116.26
204.511	115.02
204.89	112.46
205.269	110.58
205.647	111.55
206.026	114.54
206.404	113.91
206.782	113.16
207.161	111.84
207.539	110.31
207.918	108.92
208.296	106.9
208.674	105.66
209.052	104.78
209.431	103.51
209.809	102.67
210.187	101.11
210.565	102.27
210.943	103.63
211.321	104.48
211.699	103.67
212.077	103.48
212.455	103.77
212.833	105.01
213.211	106.19
213.589	105.87
213.967	103.69
214.345	104.18
214.722	104.04
215.1	105.36
215.478	107.93
215.855	109.06
216.233	109.87
216.611	109.49
216.988	109.65
217.366	111.33
217.743	111.94
218.121	112.77
218.498	112.4
218.876	112.25
219.253	113.28
219.631	113.64
220.008	113.42
220.385	111.85
220.762	110.47
221.14	109.13
221.517	107.88
221.894	107.91
222.271	108.51
222.648	111.05
223.025	111.8
223.402	112.26
223.78	112.46
224.157	113.29
224.533	115.56
224.91	116.03
225.287	116.27
225.664	117.45
226.041	118
226.418	116.4
226.795	114.43
227.171	113.26
227.548	113.4
227.925	112.36
228.301	111.82
228.678	111.34
229.055	112.19
229.431	112.95
229.808	113.28
230.184	113.11
230.561	110.23
230.937	109.13
231.313	108.97
231.69	108.66
232.066	108.42
232.442	106.72
232.819	105.96
233.195	105.14
233.571	104.12
233.947	103.48
234.323	103.41
234.699	104.21
235.075	103.91
235.451	104.92
235.827	107.13
236.203	110.52
236.579	113.96
236.955	114.96
237.331	117.65
237.707	121.61
238.083	126.57
238.459	134.19
238.834	142.18
239.21	148.39
239.586	156.49
239.961	161.22
240.337	167.44
240.713	174.45
241.088	181.17
241.464	184.48
241.839	193.65
242.215	207.83
242.59	232.54
242.965	284.93
243.341	388.46
243.716	614.42
244.091	1297.94
244.467	10114.13
244.842	-1772.12
245.217	-925.4
245.592	-756.33
245.967	-709.35
246.343	-715.13
246.718	-809.33
247.093	-822.97
247.468	-809.63
247.843	-694.44
248.218	-576.95
248.593	-465.95
248.967	-394.95
249.342	-352.99
249.717	-351.3
250.092	-352.85
250.467	-381.47
250.841	-489.26
251.216	-897.5
251.591	-4219.16
251.965	1750.57
252.34	935.8
252.714	680.34
253.089	543.32
253.463	516.48
253.838	553.79
254.212	606.98
254.587	718.26
254.961	1006.76
255.335	2872.7
255.71	-1826.97
256.084	-467.51
256.458	-263.15
256.832	-189.97
257.206	-160.24
257.581	-143.93
257.955	-137.66
258.329	-131.18
258.703	-122.29
259.077	-114.34
259.451	-109.47
259.825	-102.46
260.199	-98.07
260.572	-95.48
260.946	-91.8
261.32	-90.55
261.694	-88.49
262.068	-86.36
262.441	-84.78
262.815	-84.95
263.189	-85.62
263.562	-90.36
263.936	-103.77
264.309	-123.35
264.683	-145.68
265.056	-159.01
265.43	-162.62
265.803	-157.7
266.176	-153.24
266.55	-157.38
266.923	-155.5
267.296	-150.23
267.67	-145.88
268.043	-135.9
268.416	-125.38
268.789	-114.73
269.162	-103.06
269.535	-95.8
269.908	-91.46
270.281	-89.36
270.654	-88.56
271.027	-90.58
271.4	-90.89
271.773	-91.05
272.146	-90.53
272.519	-85.57
272.891	-84.1
273.264	-83.95
273.637	-83.52
274.01	-83.86
274.382	-81.38
274.755	-79.05
275.127	-77.76
275.5	-76.91
275.872	-77.68
276.245	-78.14
276.617	-80.23
276.99	-83.3
277.362	-86.05
277.734	-87.69
278.107	-85.46
278.479	-81.67
278.851	-77.54
279.223	-74.31
279.596	-72.07
279.968	-70.63
280.34	-71.66
280.712	-69.74
281.084	-66.56
281.456	-61.26
281.828	-56.85
282.2	-52.75
282.572	-49.94
282.944	-48.11
283.315	-47.08
283.687	-46.17
284.059	-45.12
284.431	-43.94
284.802	-43.18
285.174	-41.87
285.546	-40.33
285.917	-40.33
286.289	-40.22
286.66	-39.65
287.032	-39.47
287.403	-39
287.775	-38.5
288.146	-37.54
288.518	-37.09
288.889	-36.59
289.26	-37.85
289.632	-38.49
290.003	-39.92
290.374	-41.18
290.745	-41.55
291.116	-41.36
291.487	-40.67
291.858	-39.81
292.229	-39.28
292.6	-38.23
292.971	-37.47
293.342	-35.9
293.713	-33.81
294.084	-32.14
294.455	-31.05
294.826	-30.11
295.196	-30.21
295.567	-29.89
295.938	-29.94
296.308	-30.16
296.679	-29.78
297.05	-28.67
297.42	-27.88
297.791	-26.77
298.161	-25.97
298.532	-25.35
298.902	-24.83
299.272	-24.09
299.643	-23.64
300.013	-23.4
300.383	-23.03
300.754	-22.69
301.124	-23.03
301.494	-23.35
301.864	-23.82
302.234	-24.4
302.604	-25.23
302.974	-24.76
303.344	-24.46
303.714	-24.53
304.084	-24.03
304.454	-24.21
304.824	-24.27
305.194	-24.06
305.563	-23.6
305.933	-22.68
306.303	-21.79
306.673	-21.34
307.042	-21.05
307.412	-20.55
307.781	-19.48
308.151	-18.61
308.521	-17.9
308.89	-17.56
309.259	-17.18
309.629	-16.78
309.998	-16.36
310.368	-15.73
310.737	-15.57
311.106	-15.44
311.475	-14.86
311.845	-14.41
312.214	-14.06
312.583	-13.57
312.952	-13.24
313.321	-13.33
313.69	-13.48
314.059	-13.88
314.428	-14.15
314.797	-14.65
315.166	-15.3
315.535	-15.8
315.904	-16.26
316.272	-16.64
316.641	-16.71
317.01	-16.89
317.379	-16.87
317.747	-16.77
318.116	-16.41
318.484	-15.88
318.853	-15.48
319.221	-15.23
319.59	-15.33
319.958	-14.99
320.327	-14.91
320.695	-14.82
321.063	-14.56
321.432	-14.19
321.8	-13.4
322.168	-12.4
322.536	-11.33
322.905	-10.36
323.273	-9.86
323.641	-9.61
324.009	-9.45
324.377	-9.14
324.745	-8.83
325.113	-8.49
325.481	-8.04
325.849	-7.61
326.216	-7.22
326.584	-6.75
326.952	-6.39
327.32	-5.95
327.687	-5.52
328.055	-5.25
328.423	-5.17
328.79	-5.01
329.158	-4.91
329.525	-4.6
329.893	-4.56
330.26	-4.67
330.628	-4.89
330.995	-4.87
331.362	-4.49
331.73	-4.06
332.097	-3.86
332.464	-3.6
332.831	-3.37
333.199	-3.11
333.566	-3
333.933	-3.12
334.3	-3.32
334.667	-3.32
335.034	-3.09
335.401	-3.14
335.768	-3.05
336.135	-2.68
336.502	-2.42
336.868	-2.12
337.235	-1.95
337.602	-1.61
337.969	-1.17
338.335	-0.66
338.702	-0.27
339.069	-0.21
339.435	-0.09
339.802	0.13
340.168	0.39
340.535	0.5
340.901	0.48
341.267	0.62
341.634	0.97
342	1.32
342.366	1.57
342.733	1.74
343.099	2.04
343.465	2.23
343.831	2.3
344.197	2.36
344.563	2.49
344.929	2.48
345.295	2.56
345.661	2.67
346.027	2.78
346.393	3
346.759	3.15
347.125	3.29
347.491	3.34
347.856	3.39
348.222	3.5
348.588	3.68
348.953	3.77
349.319	3.84
349.684	3.81
350.05	3.88
350.415	4.08
350.781	4.3
351.146	4.51
351.512	4.64
351.877	4.83
352.242	4.83
352.608	4.97
352.973	4.97
353.338	4.99
353.703	5.07
354.068	5.05
354.433	5.16
354.798	5.32
355.164	5.45
355.528	5.48
355.893	5.52
356.258	5.59
356.623	5.62
356.988	5.67
357.353	5.89
357.718	6
358.082	5.91
358.447	5.74
358.812	5.78
359.176	5.79
359.541	5.8
359.905	5.95
360.27	6.06
360.634	6.12
360.999	6.18
361.363	6.29
361.728	6.3
362.092	6.33
362.456	6.33
362.821	6.42
363.185	6.55
363.549	6.73
363.913	6.81
364.277	6.92
364.641	7.03
365.005	7.13
365.369	7.23
365.733	7.41
366.097	7.64
366.461	7.68
366.825	7.87
367.189	8.04
367.553	8.12
367.916	8.2
368.28	8.34
368.644	8.56
369.007	8.58
369.371	8.7
369.734	8.83
370.098	8.97
370.461	9.09
370.825	9.2
371.188	9.31
371.552	9.43
371.915	9.58
372.278	9.7
372.642	9.78
373.005	9.87
373.368	9.92
373.731	9.99
374.094	10.09
374.457	10.12
374.82	10.16
375.183	10.25
375.546	10.35
375.909	10.37
376.272	10.35
376.635	10.4
376.998	10.44
377.361	10.45
377.723	10.48
378.086	10.57
378.449	10.64
378.811	10.72
379.174	10.76
379.537	10.84
379.899	10.96
380.262	11
380.624	11.03
380.987	11.13
381.349	11.18
381.711	11.24
382.074	11.27
382.436	11.36
382.798	11.38
383.16	11.41
383.522	11.48
383.884	11.55
384.247	11.67
384.609	11.82
384.971	11.91
385.333	11.96
385.695	11.94
386.056	11.98
386.418	11.94
386.78	11.97
387.142	11.9
387.504	11.92
387.865	11.88
388.227	11.94
388.589	11.9
388.95	11.92
389.312	11.91
389.673	11.96
390.035	11.97
390.396	11.97
390.758	11.94
391.119	11.95
391.48	11.91
391.842	11.93
392.203	11.92
392.564	11.94
392.925	11.94
393.286	11.93
393.648	11.92
394.009	11.93
394.37	11.93
394.731	11.92
395.092	11.86
395.452	11.93
395.813	11.92
396.174	11.97
396.535	11.99
396.896	12
397.257	12
397.617	12.03
397.978	12.11
398.338	12.19
398.699	12.22
399.06	12.27
399.42	12.24
399.781	12.2
400.141	12.15
400.501	12.17
400.862	12.19
401.222	12.23
401.582	12.27
401.943	12.28
402.303	12.35
402.663	12.38
403.023	12.39
403.383	12.41
403.743	12.4
404.103	12.4
404.463	12.45
404.823	12.48
405.183	12.47
405.543	12.44
405.903	12.42
406.262	12.4
406.622	12.37
406.982	12.37
407.342	12.39
407.701	12.44
408.061	12.42
408.42	12.46
408.78	12.43
409.139	12.46
409.499	12.47
409.858	12.49
410.217	12.51
410.577	12.5
410.936	12.5
411.295	12.5
411.655	12.52
412.014	12.47
412.373	12.44
412.732	12.41
413.091	12.37
413.45	12.35
413.809	12.34
414.168	12.29
414.527	12.22
414.886	12.14
415.245	12.08
415.603	12.02
415.962	11.92
416.321	11.85
416.679	11.77
417.038	11.68
417.397	11.58
417.755	11.49
418.114	11.43
418.472	11.37
418.831	11.32
419.189	11.27
419.547	11.21
419.906	11.16
420.264	11.11
420.622	11.07
420.981	11.02
421.339	10.97
421.697	10.93
422.055	10.93
422.413	10.93
422.771	10.91
423.129	10.9
423.487	10.91
423.845	10.91
424.203	10.9
424.56	10.91
424.918	10.93
425.276	10.96
425.634	10.99
425.991	11
426.349	11
426.707	11.02
427.064	11.05
427.422	11.1
427.779	11.15
428.137	11.17
428.494	11.23
428.851	11.27
429.209	11.33
429.566	11.35
429.923	11.34
430.28	11.35
430.637	11.37
430.995	11.37
431.352	11.38
431.709	11.42
432.066	11.43
432.423	11.49
432.78	11.52
433.137	11.53
433.493	11.56
433.85	11.61
434.207	11.6
434.564	11.59
434.92	11.58
435.277	11.56
435.634	11.58
435.99	11.58
436.347	11.61
436.703	11.61
437.06	11.61
437.416	11.64
437.773	11.64
438.129	11.65
438.485	11.67
438.841	11.67
439.198	11.66
439.554	11.65
439.91	11.63
440.266	11.62
440.622	11.6
440.978	11.59
441.334	11.53
441.69	11.52
442.046	11.5
442.402	11.46
442.758	11.42
443.113	11.38
443.469	11.34
443.825	11.3
444.181	11.26
444.536	11.25
444.892	11.22
445.247	11.22
445.603	11.21
445.958	11.2
446.314	11.19
446.669	11.17
447.025	11.17
447.38	11.16
447.735	11.13
448.09	11.12
448.446	11.1
448.801	11.11
449.156	11.12
449.511	11.13
449.866	11.14
450.221	11.17
450.576	11.2
450.931	11.22
451.286	11.24
451.641	11.26
451.995	11.26
452.35	11.29
452.705	11.32
453.06	11.33
453.414	11.34
453.769	11.34
454.123	11.36
454.478	11.35
454.832	11.35
455.187	11.34
455.541	11.34
455.896	11.32
456.25	11.32
456.604	11.3
456.958	11.29
457.313	11.31
457.667	11.34
458.021	11.35
458.375	11.39
458.729	11.45
459.083	11.49
459.437	11.52
459.791	11.55
460.145	11.58
460.499	11.61
460.852	11.65
461.206	11.71
461.56	11.76
461.914	11.83
462.267	11.89
462.621	11.98
462.974	12.09
463.328	12.22
463.681	12.37
464.035	12.5
464.388	12.64
464.742	12.76
465.095	12.87
465.448	12.97
465.801	13.04
466.155	13.11
466.508	13.19
466.861	13.27
467.214	13.32
467.567	13.39
467.92	13.46
468.273	13.53
468.626	13.56
468.979	13.59
469.332	13.63
469.684	13.67
470.037	13.71
470.39	13.73
470.743	13.77
471.095	13.78
471.448	13.84
471.8	13.86
472.153	13.88
472.505	13.89
472.858	13.91
473.21	13.91
473.562	13.9
473.915	13.88
474.267	13.87
474.619	13.85
474.971	13.8
475.324	13.76
475.676	13.71
476.028	13.68
476.38	13.64
476.732	13.6
477.084	13.55
477.436	13.49
477.787	13.41
478.139	13.35
478.491	13.27
478.843	13.14
479.195	13.02
479.546	12.87
479.898	12.69
480.249	12.51
480.601	12.37
480.952	12.27
481.304	12.21
481.655	12.16
482.007	12.13
482.358	12.11
482.709	12.08
483.061	12.04
483.412	12.03
483.763	12.01
484.114	11.99
484.465	11.98
484.816	11.97
485.167	11.98
485.518	11.97
485.869	11.99
486.22	12.02
486.571	12.05
486.922	12.08
487.272	12.14
487.623	12.22
487.974	12.32
488.324	12.41
488.675	12.5
489.025	12.58
489.376	12.66
489.726	12.74
490.077	12.83
490.427	12.92
490.778	13.02
491.128	13.15
491.478	13.3
491.828	13.46
492.179	13.62
492.529	13.78
492.879	13.94
493.229	14.09
493.579	14.24
493.929	14.36
494.279	14.52
494.629	14.69
494.979	14.9
495.328	15.15
495.678	15.42
496.028	15.68
496.378	15.93
496.727	16.14
497.077	16.36
497.426	16.56
497.776	16.75
498.125	16.93
498.475	17.11
498.824	17.27
499.174	17.43
499.523	17.61
499.872	17.79
500.221	17.99
500.571	18.18
500.92	18.38
501.269	18.58
501.618	18.79
501.967	18.99
502.316	19.18
502.665	19.35
503.014	19.52
503.363	19.68
503.711	19.83
504.06	19.97
504.409	20.09
504.758	20.22
505.106	20.36
505.455	20.49
505.803	20.62
506.152	20.72
506.5	20.83
506.849	20.92
507.197	21.04
507.546	21.13
507.894	21.22
508.242	21.33
508.59	21.43
508.939	21.51
509.287	21.58
509.635	21.68
509.983	21.77
510.331	21.83
510.679	21.9
511.027	21.98
511.375	22.05
511.723	22.15
512.07	22.25
512.418	22.33
512.766	22.42
513.114	22.48
513.461	22.57
513.809	22.63
514.156	22.7
514.504	22.75
514.851	22.82
515.199	22.88
515.546	22.93
515.893	22.99
516.241	23.03
516.588	23.07
516.935	23.11
517.282	23.14
517.63	23.19
517.977	23.26
518.324	23.31
518.671	23.36
519.018	23.38
519.365	23.41
519.711	23.43
520.058	23.45
520.405	23.51
520.752	23.53
521.099	23.57
521.445	23.61
521.792	23.67
522.138	23.75
522.485	23.79
522.832	23.83
523.178	23.88
523.524	23.94
523.871	24
524.217	24.05
524.563	24.07
524.91	24.08
525.256	24.06
525.602	24.06
525.948	24.06
526.294	24.07
526.64	24.09
526.986	24.12
527.332	24.13
527.678	24.14
528.024	24.17
528.37	24.22
528.716	24.23
529.061	24.25
529.407	24.24
529.753	24.25
530.098	24.26
530.444	24.28
530.789	24.3
531.135	24.31
531.48	24.32
531.826	24.35
532.171	24.41
532.516	24.46
532.862	24.51
533.207	24.57
533.552	24.61
533.897	24.64
534.242	24.68
534.587	24.73
534.932	24.77
535.277	24.79
535.622	24.8
535.967	24.85
536.312	24.88
536.657	24.95
537.001	25
537.346	25.04
537.691	25.05
538.035	25.06
538.38	25.07
538.724	25.08
539.069	25.09
539.413	25.08
539.758	25.11
540.102	25.15
540.446	25.18
540.791	25.22
541.135	25.23
541.479	25.22
541.823	25.23
542.167	25.23
542.512	25.23
542.856	25.24
543.2	25.23
543.543	25.24
543.887	25.24
544.231	25.28
544.575	25.31
544.919	25.35
545.262	25.42
545.606	25.48
545.95	25.53
546.293	25.59
546.637	25.63
546.98	25.68
547.324	25.7
547.667	25.72
548.011	25.77
548.354	25.8
548.697	25.82
549.04	25.83
549.384	25.86
549.727	25.87
550.07	25.91
550.413	25.95
550.756	25.98
551.099	26.03
551.442	26.02
551.785	26.04
552.128	26.04
552.47	26.03
552.813	26.05
553.156	26.03
553.499	26.02
553.841	26.02
554.184	26.01
554.526	26.01
554.869	25.97
555.211	25.96
555.554	25.96
555.896	25.97
556.238	25.99
556.581	25.99
556.923	25.99
557.265	25.98
557.607	25.98
557.949	25.97
558.291	25.99
558.633	26
558.975	26
559.317	26
559.659	25.98
560.001	25.94
560.343	25.93
560.685	25.91
561.026	25.91
561.368	25.9
561.71	25.85
562.051	25.85
562.393	25.84
562.734	25.81
563.076	25.82
563.417	25.8
563.759	25.81
564.1	25.83
564.441	25.8
564.782	25.82
565.124	25.79
565.465	25.77
565.806	25.73
566.147	25.72
566.488	25.71
566.829	25.7
567.17	25.7
567.511	25.7
567.851	25.7
568.192	25.68
568.533	25.66
568.874	25.67
569.214	25.71
569.555	25.7
569.895	25.69
570.236	25.69
570.576	25.69
570.917	25.66
571.257	25.62
571.598	25.61
571.938	25.61
572.278	25.61
572.618	25.59
572.959	25.6
573.299	25.63
573.639	25.65
573.979	25.65
574.319	25.63
574.659	25.64
574.999	25.64
575.339	25.62
575.678	25.62
576.018	25.63
576.358	25.6
576.698	25.57
577.037	25.53
577.377	25.47
577.716	25.45
578.056	25.47
578.395	25.45
578.735	25.44
579.074	25.37
579.413	25.31
579.753	25.29
580.092	25.29
580.431	25.21
580.77	25.17
581.109	25.16
581.448	25.15
581.787	25.17
582.126	25.15
582.465	25.14
582.804	25.15
583.143	25.12
583.482	25.1
583.82	25.12
584.159	25.12
584.498	25.13
584.836	25.14
585.175	25.12
585.514	25.11
585.852	25.16
586.19	25.12
586.529	25.17
586.867	25.2
587.205	25.21
587.544	25.25
587.882	25.27
588.22	25.27
588.558	25.24
588.896	25.17
589.234	25.17
589.572	25.13
589.91	25.11
590.248	25.11
590.586	25.11
590.924	25.11
591.262	25.15
591.599	25.16
591.937	25.16
592.275	25.11
592.612	25.13
592.95	25.07
593.287	25.13
593.625	25.1
593.962	25.08
594.299	25.09
594.637	25.09
594.974	25.08
595.311	25.1
595.648	25.11
595.985	25.15
596.322	25.14
596.659	25.18
596.996	25.15
597.333	25.17
597.67	25.16
598.007	25.13
598.344	25.08
598.681	25.07
599.017	25.05
599.354	25.08
599.691	25.08
600.027	25.06
600.364	25.06
600.7	25.11
601.037	25.12
601.373	25.09
601.71	25.09
602.046	25.11
602.382	25.11
602.718	25.13
603.054	25.14
603.391	25.13
603.727	25.11
604.063	25.11
604.399	25.08
604.735	25.08
605.071	25.09
605.406	25.11
605.742	25.11
606.078	25.16
606.414	25.15
606.749	25.14
607.085	25.15
607.421	25.13
607.756	25.1
608.092	25.1
608.427	25.09
608.762	25.09
609.098	25.07
609.433	25.03
609.768	24.98
610.104	24.94
610.439	24.97
610.774	24.98
611.109	24.98
611.444	24.99
611.779	25
612.114	24.98
612.449	24.94
612.784	24.9
613.118	24.82
613.453	24.79
613.788	24.75
614.123	24.7
614.457	24.69
614.792	24.69
615.126	24.63
615.461	24.62
615.795	24.58
616.13	24.55
616.464	24.52
616.798	24.58
617.132	24.51
617.467	24.47
617.801	24.4
618.135	24.4
618.469	24.39
618.803	24.34
619.137	24.35
619.471	24.37
619.805	24.36
620.139	24.33
620.472	24.34
620.806	24.36
621.14	24.35
621.473	24.32
621.807	24.29
622.141	24.27
622.474	24.25
622.808	24.28
623.141	24.31
623.474	24.39
623.808	24.36
624.141	24.41
624.474	24.44
624.807	24.47
625.141	24.46
625.474	24.46
625.807	24.49
626.14	24.47
626.473	24.46
626.806	24.54
627.138	24.57
627.471	24.57
627.804	24.59
628.137	24.61
628.469	24.6
628.802	24.59
629.135	24.56
629.467	24.55
629.8	24.54
630.132	24.53
630.465	24.5
630.797	24.5
631.129	24.51
631.461	24.52
631.794	24.56
632.126	24.59
632.458	24.59
632.79	24.61
633.122	24.59
633.454	24.59
633.786	24.5
634.118	24.48
634.45	24.49
634.781	24.49
635.113	24.46
635.445	24.47
635.777	24.47
636.108	24.52
636.44	24.52
636.771	24.49
637.103	24.49
637.434	24.44
637.765	24.41
638.097	24.37
638.428	24.3
638.759	24.29
639.09	24.24
639.422	24.21
639.753	24.13
640.084	24.15
640.415	24.15
640.746	24.19
641.077	24.22
641.407	24.18
641.738	24.17
642.069	24.24
642.4	24.25
642.73	24.24
643.061	24.24
643.392	24.3
643.722	24.34
644.053	24.28
644.383	24.36
644.713	24.33
645.044	24.34
645.374	24.32
645.704	24.29
646.034	24.31
646.365	24.34
646.695	24.39
647.025	24.39
647.355	24.41
647.685	24.42
648.015	24.44
648.344	24.49
648.674	24.46
649.004	24.41
649.334	24.44
649.663	24.46
649.993	24.44
650.323	24.4
650.652	24.4
650.982	24.42
651.311	24.37
651.64	24.36
651.97	24.38
652.299	24.45
652.628	24.5
652.958	24.49
653.287	24.51
653.616	24.51
653.945	24.51
654.274	24.53
654.603	24.47
654.932	24.5
655.261	24.48
655.589	24.57
655.918	24.62
656.247	24.67
656.576	24.71
656.904	24.8
657.233	24.85
657.561	24.84
657.89	24.85
658.218	24.9
658.547	24.95
658.875	25
659.203	24.98
659.532	24.96
659.86	24.94
660.188	24.94
660.516	24.95
660.844	24.91
661.172	24.89
661.5	24.93
661.828	24.88
662.156	24.89
662.484	24.8
662.811	24.81
663.139	24.79
663.467	24.76
663.794	24.71
664.122	24.65
664.45	24.7
664.777	24.75
665.104	24.68
665.432	24.65
665.759	24.62
666.086	24.7
666.414	24.76
666.741	24.75
667.068	24.76
667.395	24.76
667.722	24.83
668.049	24.84
668.376	24.81
668.703	24.87
669.03	24.91
669.357	24.98
669.683	24.97
670.01	25.02
670.337	25.03
670.663	25.07
670.99	25.03
671.317	24.95
671.643	24.95
671.969	25.04
672.296	25.07
672.622	25.12
672.948	25.01
673.275	24.96
673.601	24.96
673.927	24.94
674.253	24.92
674.579	24.95
674.905	24.93
675.231	24.98
675.557	25.01
675.883	24.96
676.209	24.96
676.534	24.95
676.86	24.92
677.186	25
677.511	25
677.837	25.09
678.162	25.15
678.488	25.15
678.813	25.13
679.139	25.13
679.464	25.1
679.789	25.16
680.114	25.19
680.44	25.16
680.765	25.24
681.09	25.26
681.415	25.26
681.74	25.27
682.065	25.27
682.39	25.24
682.714	25.27
683.039	25.24
683.364	25.27
683.689	25.28
684.013	25.19
684.338	25.15
684.662	25.21
684.987	25.18
685.311	25.16
685.636	25.16
685.96	25.16
686.284	25.15
686.608	25.13
686.933	25.1
687.257	25.12
687.581	25.07
687.905	25.13
688.229	25.12
688.553	25.1
688.877	25.08
689.201	25.11
689.524	25.06
689.848	25.05
690.172	25.07
690.496	25.04
690.819	25.03
691.143	25.05
691.466	24.92
691.79	24.9
692.113	24.8
692.436	24.78
692.76	24.74
693.083	24.74
693.406	24.74
693.729	24.84
694.053	24.86
694.376	24.87
694.699	24.93
695.022	25.02
695.344	25.13
695.667	25.32
695.99	25.37
696.313	25.47
696.636	25.57
696.958	25.57
697.281	25.59
697.604	25.63
697.926	25.64
698.249	25.72
698.571	25.79
698.893	25.83
699.216	25.87
699.538	25.89
699.86	25.88
700.182	25.83
700.504	25.75
700.827	25.84
701.149	25.84
701.471	25.73
701.793	25.6
702.114	25.52
702.436	25.25
702.758	25.12
703.08	24.94
703.401	24.79
703.723	24.66
704.045	24.66
704.366	24.73
704.688	24.67
705.009	24.58
705.331	24.49
705.652	24.48
705.973	24.51
706.294	24.5
706.616	24.65
706.937	24.68
707.258	24.8
707.579	24.74
707.9	24.92
708.221	25.09
708.542	25.22
708.863	25.27
709.183	25.39
709.504	25.47
709.825	25.61
710.145	25.61
710.466	25.61
710.787	25.63
711.107	25.51
711.427	25.55
711.748	25.58
712.068	25.59
712.388	25.7
712.709	25.66
713.029	25.63
713.349	25.56
713.669	25.67
713.989	25.64
714.309	25.65
714.629	25.55
714.949	25.37
715.269	25.23
715.589	25.18
715.908	25.17
716.228	25.14
716.548	25.15
716.867	25.16
717.187	25.26
717.506	25.19
717.826	25.28
718.145	25.34
718.465	25.35
718.784	25.55
719.103	25.52
719.422	25.55
719.741	25.67
720.061	25.72
720.38	25.76
720.699	25.83
721.018	25.92
721.336	25.93
721.655	26.1
721.974	26.33
722.293	26.6
722.612	26.7
722.93	26.9
723.249	26.92
723.567	27.09
723.886	27.16
724.204	27.33
724.523	27.4
724.841	27.52
725.159	27.67
725.477	27.64
725.796	27.75
726.114	28.14
726.432	28.3
726.75	28.42
727.068	28.38
727.386	28.48
727.704	28.58
728.022	28.69
728.339	28.85
728.657	29.02
728.975	29.1
729.292	29.16
729.61	29.13
729.928	29.2
730.245	29.27
730.562	29.39
730.88	29.48
731.197	29.6
731.514	29.65
731.832	29.75
732.149	29.88
732.466	30.06
732.783	29.99
733.1	30.11
733.417	30.16
733.734	30.31
734.051	30.35
734.368	30.45
734.684	30.51
735.001	30.56
735.318	30.49
735.634	30.51
735.951	30.8
736.268	30.94
736.584	31.15
736.9	31.4
737.217	31.43
737.533	31.5
737.849	31.66
738.166	31.79
738.482	31.93
738.798	32.12
739.114	32.18
739.43	32.24
739.746	32.31
740.062	32.46
740.378	32.71
740.693	32.79
741.009	33.02
741.325	33.18
741.641	33.45
741.956	33.72
742.272	33.92
742.587	33.94
742.903	34.08
743.218	34.16
743.533	34.12
743.849	34.28
744.164	34.46
744.479	34.6
744.794	34.7
745.109	34.83
745.424	34.75
745.739	34.73
746.054	34.82
746.369	34.89
746.684	35
746.999	34.93
747.313	35.05
747.628	35.02
747.943	35.03
748.257	34.85
748.572	34.74
748.886	34.77
749.201	34.79
749.515	34.91
749.829	34.97
750.144	35.08
750.458	35.26
750.772	35.31
751.086	35.22
751.4	35.29
751.714	35.24
752.028	35.45
752.342	35.62
752.656	35.65
752.97	35.75
753.284	35.86
753.597	36
753.911	36.15
754.225	36.2
754.538	36.31
754.852	36.5
755.165	36.71
755.478	36.7
755.792	36.79
756.105	36.86
756.418	36.83
756.731	36.9
757.045	36.94
757.358	36.9
757.671	37.01
757.984	37.03
758.297	37.2
758.609	37.19
758.922	37.31
759.235	37.38
759.548	37.26
759.86	37.14
760.173	36.92
760.486	36.66
760.798	36.56
761.111	36.49
761.423	36.5
761.735	36.3
762.048	36.4
762.36	36.45
762.672	36.41
762.984	36.54
763.296	36.56
763.608	36.6
763.92	36.73
764.232	36.94
764.544	37.04
764.856	37.08
765.168	37.12
765.48	37.07
765.791	37.21
766.103	37.47
766.414	37.62
766.726	37.96
767.037	38.3
767.349	38.67
767.66	39.02
767.972	39.38
768.283	39.91
768.594	40.17
768.905	40.35
769.216	40.5
769.527	40.83
769.838	41.12
770.149	41.35
770.46	41.7
770.771	41.69
771.082	41.97
771.393	42.06
771.703	42.15
772.014	42.3
772.324	42.33
772.635	42.29
772.945	42.49
773.256	42.57
773.566	42.84
773.877	42.85
774.187	42.89
774.497	42.67
774.807	42.68
775.117	42.76
775.427	42.97
775.737	43.37
776.047	43.25
776.357	43.4
776.667	43.56
776.977	43.62
777.287	43.87
777.596	43.75
777.906	43.92
778.216	44.35
778.525	44.6
778.835	44.64
779.144	44.82
779.453	44.79
779.763	44.9
780.072	44.97
780.381	45.21
780.69	45.41
781	45.85
781.309	45.98
781.618	46.14
781.927	46.44
782.235	46.23
782.544	46.42
782.853	46.51
783.162	46.58
783.471	46.62
783.779	46.52
784.088	46.78
784.396	46.74
784.705	46.45
785.013	46.2
785.322	46.17
785.63	46.34
785.938	46.48
786.246	46.41
786.554	46.34
786.863	46.07
787.171	46.15
787.479	46.17
787.787	46.22
788.094	46.04
788.402	45.84
788.71	46.08
789.018	46.32
789.326	46.32
789.633	46.39
789.941	46.45
790.248	46.42
790.556	46.34
790.863	46.59
791.171	46.8
791.478	47.25
791.785	47.74
792.092	47.61
792.399	47.67
792.707	47.83
793.014	48.04
793.321	48.33
793.628	48.44
793.934	48.15
794.241	48.22
794.548	48.32
794.855	48.11
795.161	48.17
795.468	48.03
795.775	47.85
796.081	47.57
796.388	47.34
796.694	47.55
797	47.75
797.307	47.9
797.613	47.95
797.919	47.82
798.225	47.64
798.531	47.73
798.837	47.61
799.143	47.91
799.449	47.97
799.755	47.97
800.061	48.07
800.367	48.34
800.672	48.46
800.978	49.05
801.284	49.41
801.589	49.37
801.895	49.27
802.2	49.58
802.506	49.9
802.811	50.12
803.116	49.98
803.421	49.83
803.727	49.69
804.032	49.74
804.337	50.04
804.642	50.05
804.947	50.1
805.252	50.4
805.556	50.34
805.861	50.56
806.166	50.75
806.471	50.91
806.775	51
807.08	51.11
807.384	50.89
807.689	50.85
807.993	50.71
808.298	51.07
808.602	51.12
808.906	51.09
809.211	51.22
809.515	51.27
809.819	51.58
810.123	51.7
810.427	51.85
810.731	51.67
811.035	51.86
811.338	52.03
811.642	51.94
811.946	52.17
812.25	52.11
812.553	52.18
812.857	52
813.16	52.18
813.464	52.34
813.767	52.38
814.07	52.64
814.374	53.07
814.677	53.02
814.98	53.02
815.283	53.11
815.586	53.16
815.889	53
816.192	52.69
816.495	52.84
816.798	52.73
817.101	52.47
817.404	51.76
817.706	51.52
818.009	51.18
818.312	50.22
818.614	49.25
818.917	47.95
819.219	46.29
819.521	44.38
819.824	42.85
820.126	41.59
820.428	40.63
820.73	39.89
821.032	39.32
821.334	38.99
821.636	38.69
821.938	38.62
822.24	38.52
822.542	38.36
822.844	38.25
823.145	38.2
823.447	38.15
823.749	38.16
824.05	38.02
824.352	37.91
824.653	37.9
824.955	37.86
825.256	37.85
825.557	37.95
825.858	38.19
826.16	38.54
826.461	38.88
826.762	39.33
827.063	39.76
827.364	40.29
827.665	40.71
827.965	41.22
828.266	41.42
828.567	41.96
828.868	42.4
829.168	42.71
829.469	42.99
829.769	43.31
830.07	43.6
830.37	43.93
830.67	44.33
830.971	44.78
831.271	45.14
831.571	45.36
831.871	45.52
832.171	45.62
832.471	45.16
832.771	45.25
833.071	45.28
833.371	45.57
833.671	45.83
833.971	46.12
834.27	46.05
834.57	46.18
834.869	46.07
835.169	46.25
835.468	46.01
835.768	45.99
836.067	46.19
836.367	46.29
836.666	46.94
836.965	47.57
837.264	48.04
837.563	48.63
837.862	49.29
838.161	50.16
838.46	51.06
838.759	52.34
839.058	52.86
839.356	53.6
839.655	54.43
839.954	54.67
840.252	54.98
840.551	55.69
840.849	56.03
841.148	56.1
841.446	56.15
841.744	56.8
842.043	57.17
842.341	56.87
842.639	57.36
842.937	57.3
843.235	57.18
843.533	57.61
843.831	58.22
844.129	59.09
844.427	59.42
844.724	60.08
845.022	60.63
845.32	62.09
845.617	62.92
845.915	63.59
846.212	64.18
846.51	64.04
846.807	64.13
847.104	64.63
847.402	65.39
847.699	66.19
847.996	66.52
848.293	66.62
848.59	67.23
848.887	67.21
849.184	67.4
849.481	67.18
849.778	67.47
850.074	68
850.371	68.25
850.668	69.04
850.964	68.96
851.261	69.7
851.557	69.75
851.854	70.34
852.15	70.13
852.446	70.99
852.743	71.72
853.039	72.12
853.335	72.2
853.631	72.15
853.927	72.62
854.223	73.19
854.519	73.51
854.815	72.91
855.111	72.81
855.406	73.28
855.702	73.95
855.998	74.12
856.293	73.68
856.589	74.7
856.884	75
857.18	74.73
857.475	75.2
857.77	75.03
858.066	74.7
858.361	75
858.656	74.32
858.951	74.45
859.246	74.44
859.541	73.5
859.836	73.69
860.131	73.3
860.426	72.24
860.72	71.16
861.015	71.78
861.31	71.67
861.604	71.12
861.899	71.59
862.193	71.29
862.487	71.43
862.782	70.82
863.076	70.25
863.37	71.36
863.664	70.31
863.959	70.96
864.253	70.33
864.547	70.27
864.841	71.07
865.135	71.04
865.428	71.57
865.722	72.16
866.016	72.15
866.31	71.75
866.603	72.75
866.897	73.83
867.19	74.29
867.484	75.21
867.777	75.26
868.07	74.65
868.364	75.51
868.657	75.68
868.95	75.34
869.243	75.65
869.536	75.17
869.829	75.73
870.122	75.23
870.415	74.63
870.708	74.84
871	73.97
871.293	74.11
871.586	72.93
871.878	72.8
872.171	73.35
872.463	73.81
872.756	72.99
873.048	73.01
873.341	72.74
873.633	72.21
873.925	72.1
874.217	72.38
874.509	70.89
874.801	71.02
875.093	71.36
875.385	71.59
875.677	71.68
875.969	71.42
