Data from pcis_p_h3_p1_Reflection_1.txt Node
Date: Wed Jul 12 17:51:15 ART 2017
User: rodoncho
Spectrometer: USB2E3644
Trigger mode: 4
Integration Time (sec): 6.000000E-2
Scans to average: 10
Electric dark correction enabled: true
Nonlinearity correction enabled: false
Boxcar width: 10
XAxis mode: Wavelengths
Number of Pixels in Spectrum: 2048
>>>>>Begin Spectral Data<<<<<
178.315	-649.33
178.696	495.83
179.076	429.82
179.457	297.1
179.838	166.67
180.218	66.67
180.599	116.67
180.979	440
181.36	28.74
181.74	37.92
182.121	16.67
182.501	83.62
182.881	55.35
183.262	31.75
183.642	11.38
184.022	-158.73
184.402	-533.33
184.783	615.56
185.163	408.64
185.543	312.4
185.923	256.08
186.303	230.3
186.683	162.58
187.063	148.68
187.443	141.83
187.823	136.08
188.203	127.84
188.583	121.18
188.963	121.3
189.343	116.21
189.723	113.23
190.102	112.35
190.482	112.26
190.862	109.91
191.242	115.53
191.621	121.18
192.001	121.42
192.38	118.84
192.76	117.19
193.14	116.35
193.519	117.42
193.898	118.26
194.278	118.04
194.657	119.11
195.037	119.04
195.416	121.4
195.795	121.37
196.175	120.15
196.554	119.06
196.933	116.79
197.312	115.79
197.692	117.14
198.071	117.83
198.45	115.06
198.829	115.88
199.208	113.02
199.587	112.92
199.966	112.98
200.345	112.76
200.724	112.18
201.103	110.89
201.482	108.85
201.86	107.58
202.239	106.88
202.618	106.29
202.997	105.67
203.375	102.8
203.754	101.39
204.133	102.52
204.511	104.79
204.89	106.71
205.269	106.96
205.647	107.41
206.026	106.55
206.404	106.69
206.782	105.28
207.161	105.66
207.539	105.66
207.918	105.05
208.296	106.75
208.674	108.89
209.052	109.54
209.431	111.23
209.809	110.68
210.187	111.16
210.565	111.42
210.943	112.26
211.321	113.4
211.699	116.13
212.077	117.39
212.455	115.62
212.833	114.03
213.211	113.19
213.589	113.38
213.967	114.28
214.345	114.41
214.722	116.24
215.1	116.34
215.478	117.36
215.855	118.69
216.233	119.3
216.611	117.28
216.988	116.35
217.366	114.39
217.743	114.57
218.121	115.04
218.498	114.92
218.876	115.17
219.253	116.47
219.631	114.75
220.008	115.21
220.385	116.73
220.762	118.85
221.14	120.5
221.517	119.37
221.894	119.61
222.271	119.74
222.648	117.28
223.025	116.64
223.402	116.74
223.78	117.28
224.157	117.93
224.533	119.05
224.91	120.51
225.287	122.18
225.664	123.44
226.041	123.11
226.418	122.94
226.795	121.33
227.171	120.39
227.548	121.52
227.925	120.86
228.301	120.85
228.678	119.65
229.055	119.25
229.431	119.62
229.808	119.26
230.184	120.49
230.561	123.22
230.937	123.23
231.313	122.42
231.69	122.87
232.066	121.18
232.442	121.41
232.819	121.64
233.195	121.18
233.571	120.67
233.947	121.8
234.323	123.04
234.699	124.84
235.075	124.36
235.451	123.58
235.827	123.91
236.203	123.23
236.579	124.07
236.955	124.32
237.331	126.1
237.707	130.45
238.083	133.18
238.459	137.01
238.834	142.91
239.21	147.71
239.586	152.19
239.961	157.36
240.337	159.54
240.713	163.34
241.088	167.6
241.464	171.02
241.839	174.85
242.215	181.97
242.59	194.97
242.965	221.97
243.341	273.86
243.716	341.92
244.091	461.27
244.467	604.15
244.842	829.97
245.217	1351.11
245.592	1633.33
245.967	2147.81
246.343	2061.18
246.718	1964.26
247.093	2204.57
247.468	2307.73
247.843	3463.77
248.218	-79666.67
248.593	-2678.53
248.967	-1265.59
249.342	-971.81
249.717	-892.32
250.092	-880.19
250.467	-1086.44
250.841	-1965.42
251.216	5442.53
251.591	1272.27
251.965	746.42
252.34	584.37
252.714	520.89
253.089	456.4
253.463	456.8
253.838	460.94
254.212	474.74
254.587	522.96
254.961	645.3
255.335	1156.78
255.71	-9201.85
256.084	-807.52
256.458	-405.25
256.832	-283.59
257.206	-234.58
257.581	-209.65
257.955	-197.47
258.329	-183.13
258.703	-170.93
259.077	-161.56
259.451	-155.17
259.825	-145.17
260.199	-138.37
260.572	-133.93
260.946	-127.63
261.32	-125.6
261.694	-120.99
262.068	-117.89
262.441	-117.5
262.815	-115.94
263.189	-117.3
263.562	-125.41
263.936	-141.87
264.309	-168.07
264.683	-198.28
265.056	-222.96
265.43	-236.51
265.803	-234.12
266.176	-225.51
266.55	-219.47
266.923	-211.65
267.296	-204.27
267.67	-194.69
268.043	-181.56
268.416	-166.36
268.789	-150.22
269.162	-130.79
269.535	-120.56
269.908	-114.31
270.281	-110.35
270.654	-110.97
271.027	-113.77
271.4	-115.62
271.773	-115.51
272.146	-114.05
272.519	-108.99
272.891	-104.27
273.264	-102.45
273.637	-100.62
274.01	-101.64
274.382	-101.31
274.755	-100.16
275.127	-97.16
275.5	-98.6
275.872	-98.74
276.245	-98.93
276.617	-101.28
276.99	-105.89
277.362	-110.68
277.734	-111.57
278.107	-109.52
278.479	-103.16
278.851	-99.2
279.223	-95.77
279.596	-93.61
279.968	-92.72
280.34	-92.86
280.712	-91.74
281.084	-87.4
281.456	-80.82
281.828	-75.07
282.2	-69.34
282.572	-64.14
282.944	-62.55
283.315	-60.44
283.687	-59.41
284.059	-59.44
284.431	-58.97
284.802	-58.26
285.174	-56.31
285.546	-55.36
285.917	-55.24
286.289	-53.95
286.66	-52.46
287.032	-51.85
287.403	-51.13
287.775	-50.37
288.146	-49.94
288.518	-49.65
288.889	-49.15
289.26	-50.24
289.632	-50.63
290.003	-51.62
290.374	-53.8
290.745	-54.79
291.116	-55.14
291.487	-54.22
291.858	-52.75
292.229	-51.85
292.6	-50.23
292.971	-48.95
293.342	-46.87
293.713	-44.05
294.084	-42.39
294.455	-41.71
294.826	-40.47
295.196	-40.2
295.567	-39.97
295.938	-39.89
296.308	-39.83
296.679	-39.1
297.05	-38.56
297.42	-38.46
297.791	-38.06
298.161	-36.73
298.532	-35.49
298.902	-34.55
299.272	-33.53
299.643	-32.28
300.013	-31.68
300.383	-31.46
300.754	-30.91
301.124	-31.13
301.494	-31.53
301.864	-31.9
302.234	-31.88
302.604	-32.1
302.974	-31.84
303.344	-31.57
303.714	-30.95
304.084	-30.31
304.454	-30.07
304.824	-29.01
305.194	-28.24
305.563	-27.35
305.933	-26.31
306.303	-25.05
306.673	-24.37
307.042	-24.14
307.412	-23.75
307.781	-22.74
308.151	-21.86
308.521	-21.59
308.89	-20.97
309.259	-20.4
309.629	-20.01
309.998	-19.77
310.368	-19.5
310.737	-19.35
311.106	-18.91
311.475	-18.31
311.845	-17.79
312.214	-17.29
312.583	-17.31
312.952	-17.08
313.321	-17.09
313.69	-17.13
314.059	-17.51
314.428	-17.88
314.797	-18.16
315.166	-18.91
315.535	-19.42
315.904	-20.05
316.272	-20.23
316.641	-20.56
317.01	-20.61
317.379	-20.86
317.747	-20.59
318.116	-20.47
318.484	-19.86
318.853	-19.31
319.221	-19.22
319.59	-18.7
319.958	-18.53
320.327	-17.94
320.695	-17.21
321.063	-16.54
321.432	-16.1
321.8	-15.49
322.168	-14.3
322.536	-13.21
322.905	-12.15
323.273	-11.48
323.641	-10.7
324.009	-10.51
324.377	-10.21
324.745	-9.98
325.113	-9.52
325.481	-8.97
325.849	-8.46
326.216	-8.16
326.584	-8.02
326.952	-7.7
327.32	-7.49
327.687	-6.96
328.055	-6.63
328.423	-6.54
328.79	-6.39
329.158	-6.29
329.525	-5.7
329.893	-5.44
330.26	-5.2
330.628	-5.15
330.995	-4.81
331.362	-4.45
331.73	-3.7
332.097	-3.12
332.464	-2.83
332.831	-2.46
333.199	-2.17
333.566	-1.92
333.933	-1.81
334.3	-1.56
334.667	-1.18
335.034	-0.94
335.401	-0.91
335.768	-0.82
336.135	-0.57
336.502	-0.32
336.868	-0.06
337.235	-0.1
337.602	0.1
337.969	0.06
338.335	0.25
338.702	0.33
339.069	0.44
339.435	0.49
339.802	0.56
340.168	0.87
340.535	1.04
340.901	1.07
341.267	1.34
341.634	1.69
342	1.87
342.366	1.96
342.733	1.99
343.099	2.12
343.465	2.29
343.831	2.3
344.197	2.33
344.563	2.39
344.929	2.54
345.295	2.72
345.661	3.06
346.027	3.32
346.393	3.44
346.759	3.32
347.125	3.23
347.491	3.21
347.856	3.16
348.222	3.18
348.588	3.28
348.953	3.19
349.319	3.23
349.684	3.42
350.05	3.55
350.415	3.91
350.781	4.06
351.146	4.18
351.512	4.34
351.877	4.49
352.242	4.53
352.608	4.62
352.973	4.56
353.338	4.49
353.703	4.49
354.068	4.62
354.433	4.78
354.798	5
355.164	5.15
355.528	5.26
355.893	5.37
356.258	5.41
356.623	5.55
356.988	5.64
357.353	5.74
357.718	5.9
358.082	5.84
358.447	5.84
358.812	5.9
359.176	6.02
359.541	6.09
359.905	6.28
360.27	6.29
360.634	6.34
360.999	6.37
361.363	6.49
361.728	6.58
362.092	6.68
362.456	6.69
362.821	6.75
363.185	6.79
363.549	6.88
363.913	6.97
364.277	7.04
364.641	7.12
365.005	7.14
365.369	7.15
365.733	7.23
366.097	7.35
366.461	7.47
366.825	7.48
367.189	7.54
367.553	7.63
367.916	7.82
368.28	7.98
368.644	8.17
369.007	8.22
369.371	8.29
369.734	8.35
370.098	8.53
370.461	8.65
370.825	8.77
371.188	8.91
371.552	9
371.915	9.1
372.278	9.2
372.642	9.32
373.005	9.36
373.368	9.37
373.731	9.43
374.094	9.46
374.457	9.49
374.82	9.54
375.183	9.58
375.546	9.62
375.909	9.64
376.272	9.64
376.635	9.66
376.998	9.68
377.361	9.72
377.723	9.72
378.086	9.73
378.449	9.8
378.811	9.86
379.174	9.92
379.537	9.96
379.899	10.03
380.262	10.04
380.624	10.07
380.987	10.12
381.349	10.16
381.711	10.25
382.074	10.33
382.436	10.4
382.798	10.37
383.16	10.35
383.522	10.4
383.884	10.45
384.247	10.56
384.609	10.64
384.971	10.69
385.333	10.73
385.695	10.78
386.056	10.8
386.418	10.72
386.78	10.74
387.142	10.7
387.504	10.67
387.865	10.67
388.227	10.64
388.589	10.7
388.95	10.7
389.312	10.65
389.673	10.63
390.035	10.61
390.396	10.63
390.758	10.64
391.119	10.65
391.48	10.61
391.842	10.56
392.203	10.49
392.564	10.47
392.925	10.46
393.286	10.43
393.648	10.41
394.009	10.44
394.37	10.42
394.731	10.41
395.092	10.35
395.452	10.34
395.813	10.4
396.174	10.39
396.535	10.4
396.896	10.39
397.257	10.41
397.617	10.42
397.978	10.45
398.338	10.5
398.699	10.49
399.06	10.47
399.42	10.42
399.781	10.42
400.141	10.36
400.501	10.35
400.862	10.34
401.222	10.33
401.582	10.33
401.943	10.33
402.303	10.33
402.663	10.34
403.023	10.34
403.383	10.31
403.743	10.3
404.103	10.31
404.463	10.31
404.823	10.32
405.183	10.34
405.543	10.32
405.903	10.3
406.262	10.29
406.622	10.34
406.982	10.37
407.342	10.37
407.701	10.44
408.061	10.42
408.42	10.43
408.78	10.45
409.139	10.43
409.499	10.43
409.858	10.49
410.217	10.54
410.577	10.54
410.936	10.54
411.295	10.53
411.655	10.47
412.014	10.43
412.373	10.38
412.732	10.33
413.091	10.27
413.45	10.2
413.809	10.13
414.168	10.03
414.527	9.94
414.886	9.86
415.245	9.75
415.603	9.69
415.962	9.57
416.321	9.46
416.679	9.35
417.038	9.25
417.397	9.12
417.755	9
418.114	8.91
418.472	8.83
418.831	8.77
419.189	8.72
419.547	8.64
419.906	8.56
420.264	8.45
420.622	8.37
420.981	8.3
421.339	8.25
421.697	8.2
422.055	8.16
422.413	8.12
422.771	8.1
423.129	8.08
423.487	8.08
423.845	8.07
424.203	8.07
424.56	8.08
424.918	8.09
425.276	8.1
425.634	8.12
425.991	8.11
426.349	8.11
426.707	8.13
427.064	8.16
427.422	8.2
427.779	8.25
428.137	8.31
428.494	8.38
428.851	8.41
429.209	8.46
429.566	8.51
429.923	8.55
430.28	8.56
430.637	8.58
430.995	8.6
431.352	8.63
431.709	8.67
432.066	8.71
432.423	8.74
432.78	8.79
433.137	8.81
433.493	8.86
433.85	8.91
434.207	8.89
434.564	8.9
434.92	8.93
435.277	8.93
435.634	8.95
435.99	8.96
436.347	8.97
436.703	8.96
437.06	8.97
437.416	8.98
437.773	8.99
438.129	9
438.485	9.01
438.841	9
439.198	8.97
439.554	8.93
439.91	8.93
440.266	8.89
440.622	8.87
440.978	8.85
441.334	8.79
441.69	8.75
442.046	8.71
442.402	8.63
442.758	8.55
443.113	8.49
443.469	8.41
443.825	8.37
444.181	8.33
444.536	8.29
444.892	8.25
445.247	8.19
445.603	8.15
445.958	8.1
446.314	8.05
446.669	8.02
447.025	8
447.38	7.96
447.735	7.93
448.09	7.89
448.446	7.84
448.801	7.81
449.156	7.77
449.511	7.76
449.866	7.76
450.221	7.79
450.576	7.79
450.931	7.79
451.286	7.78
451.641	7.77
451.995	7.76
452.35	7.77
452.705	7.79
453.06	7.8
453.414	7.83
453.769	7.85
454.123	7.86
454.478	7.85
454.832	7.84
455.187	7.83
455.541	7.84
455.896	7.84
456.25	7.86
456.604	7.87
456.958	7.89
457.313	7.91
457.667	7.94
458.021	7.99
458.375	8.05
458.729	8.13
459.083	8.19
459.437	8.25
459.791	8.31
460.145	8.36
460.499	8.44
460.852	8.49
461.206	8.58
461.56	8.64
461.914	8.73
462.267	8.82
462.621	8.93
462.974	9.07
463.328	9.25
463.681	9.4
464.035	9.59
464.388	9.77
464.742	9.92
465.095	10.07
465.448	10.19
465.801	10.29
466.155	10.39
466.508	10.49
466.861	10.57
467.214	10.66
467.567	10.77
467.92	10.82
468.273	10.9
468.626	10.96
468.979	11.05
469.332	11.09
469.684	11.12
470.037	11.18
470.39	11.21
470.743	11.25
471.095	11.32
471.448	11.35
471.8	11.38
472.153	11.4
472.505	11.4
472.858	11.39
473.21	11.38
473.562	11.32
473.915	11.27
474.267	11.2
474.619	11.13
474.971	11.02
475.324	10.96
475.676	10.87
476.028	10.79
476.38	10.68
476.732	10.6
477.084	10.51
477.436	10.38
477.787	10.26
478.139	10.11
478.491	9.95
478.843	9.78
479.195	9.6
479.546	9.37
479.898	9.08
480.249	8.78
480.601	8.55
480.952	8.41
481.304	8.31
481.655	8.24
482.007	8.18
482.358	8.14
482.709	8.08
483.061	8.03
483.412	7.98
483.763	7.94
484.114	7.9
484.465	7.87
484.816	7.85
485.167	7.84
485.518	7.84
485.869	7.86
486.22	7.87
486.571	7.9
486.922	7.94
487.272	8
487.623	8.1
487.974	8.23
488.324	8.34
488.675	8.44
489.025	8.53
489.376	8.63
489.726	8.72
490.077	8.83
490.427	8.95
490.778	9.08
491.128	9.25
491.478	9.43
491.828	9.63
492.179	9.85
492.529	10.06
492.879	10.28
493.229	10.47
493.579	10.67
493.929	10.85
494.279	11.04
494.629	11.26
494.979	11.54
495.328	11.84
495.678	12.21
496.028	12.55
496.378	12.88
496.727	13.17
497.077	13.45
497.426	13.72
497.776	13.97
498.125	14.19
498.475	14.43
498.824	14.64
499.174	14.84
499.523	15.05
499.872	15.27
500.221	15.49
500.571	15.73
500.92	15.98
501.269	16.22
501.618	16.47
501.967	16.69
502.316	16.91
502.665	17.13
503.014	17.31
503.363	17.5
503.711	17.66
504.06	17.82
504.409	17.95
504.758	18.06
505.106	18.15
505.455	18.26
505.803	18.35
506.152	18.45
506.5	18.54
506.849	18.62
507.197	18.72
507.546	18.8
507.894	18.86
508.242	18.92
508.59	18.95
508.939	18.99
509.287	19.01
509.635	19.03
509.983	19.07
510.331	19.1
510.679	19.14
511.027	19.18
511.375	19.19
511.723	19.25
512.07	19.28
512.418	19.35
512.766	19.37
513.114	19.4
513.461	19.42
513.809	19.42
514.156	19.42
514.504	19.39
514.851	19.37
515.199	19.34
515.546	19.29
515.893	19.28
516.241	19.27
516.588	19.26
516.935	19.24
517.282	19.24
517.63	19.2
517.977	19.18
518.324	19.15
518.671	19.16
519.018	19.15
519.365	19.11
519.711	19.06
520.058	19.04
520.405	19.04
520.752	19.03
521.099	19.03
521.445	19
521.792	18.96
522.138	18.92
522.485	18.9
522.832	18.9
523.178	18.88
523.524	18.83
523.871	18.8
524.217	18.74
524.563	18.65
524.91	18.54
525.256	18.41
525.602	18.31
525.948	18.21
526.294	18.13
526.64	18.09
526.986	18.07
527.332	18.03
527.678	18.01
528.024	17.97
528.37	17.95
528.716	17.92
529.061	17.9
529.407	17.87
529.753	17.81
530.098	17.74
530.444	17.7
530.789	17.66
531.135	17.63
531.48	17.62
531.826	17.6
532.171	17.6
532.516	17.6
532.862	17.59
533.207	17.59
533.552	17.58
533.897	17.55
534.242	17.51
534.587	17.49
534.932	17.48
535.277	17.45
535.622	17.43
535.967	17.42
536.312	17.39
536.657	17.37
537.001	17.38
537.346	17.37
537.691	17.29
538.035	17.23
538.38	17.16
538.724	17.1
539.069	17.05
539.413	16.99
539.758	16.94
540.102	16.91
540.446	16.89
540.791	16.88
541.135	16.87
541.479	16.85
541.823	16.83
542.167	16.8
542.512	16.79
542.856	16.75
543.2	16.72
543.543	16.69
543.887	16.66
544.231	16.64
544.575	16.63
544.919	16.65
545.262	16.65
545.606	16.65
545.95	16.65
546.293	16.66
546.637	16.68
546.98	16.69
547.324	16.67
547.667	16.63
548.011	16.57
548.354	16.52
548.697	16.5
549.04	16.43
549.384	16.36
549.727	16.32
550.07	16.27
550.413	16.23
550.756	16.2
551.099	16.16
551.442	16.1
551.785	16.04
552.128	15.97
552.47	15.9
552.813	15.86
553.156	15.79
553.499	15.71
553.841	15.62
554.184	15.56
554.526	15.52
554.869	15.46
555.211	15.41
555.554	15.34
555.896	15.28
556.238	15.24
556.581	15.19
556.923	15.12
557.265	15.05
557.607	15.01
557.949	14.96
558.291	14.9
558.633	14.84
558.975	14.78
559.317	14.74
559.659	14.69
560.001	14.64
560.343	14.61
560.685	14.58
561.026	14.55
561.368	14.44
561.71	14.34
562.051	14.3
562.393	14.28
562.734	14.24
563.076	14.15
563.417	14.09
563.759	14.02
564.1	13.95
564.441	13.94
564.782	13.86
565.124	13.8
565.465	13.71
565.806	13.7
566.147	13.66
566.488	13.61
566.829	13.58
567.17	13.51
567.511	13.44
567.851	13.37
568.192	13.31
568.533	13.3
568.874	13.24
569.214	13.18
569.555	13.12
569.895	13.08
570.236	13.04
570.576	12.99
570.917	12.97
571.257	12.97
571.598	12.92
571.938	12.89
572.278	12.84
572.618	12.84
572.959	12.77
573.299	12.72
573.639	12.68
573.979	12.63
574.319	12.61
574.659	12.57
574.999	12.55
575.339	12.51
575.678	12.47
576.018	12.43
576.358	12.39
576.698	12.35
577.037	12.31
577.377	12.26
577.716	12.21
578.056	12.16
578.395	12.09
578.735	12.03
579.074	11.97
579.413	11.91
579.753	11.87
580.092	11.87
580.431	11.84
580.77	11.79
581.109	11.77
581.448	11.71
581.787	11.67
582.126	11.6
582.465	11.55
582.804	11.52
583.143	11.52
583.482	11.49
583.82	11.44
584.159	11.42
584.498	11.37
584.836	11.33
585.175	11.29
585.514	11.2
585.852	11.18
586.19	11.12
586.529	11.07
586.867	11.07
587.205	11.01
587.544	10.99
587.882	10.97
588.22	10.95
588.558	10.9
588.896	10.9
589.234	10.92
589.572	10.92
589.91	10.86
590.248	10.82
590.586	10.8
590.924	10.78
591.262	10.73
591.599	10.71
591.937	10.72
592.275	10.69
592.612	10.7
592.95	10.69
593.287	10.7
593.625	10.73
593.962	10.71
594.299	10.68
594.637	10.68
594.974	10.67
595.311	10.65
595.648	10.67
595.985	10.64
596.322	10.61
596.659	10.6
596.996	10.61
597.333	10.57
597.67	10.53
598.007	10.5
598.344	10.5
598.681	10.5
599.017	10.42
599.354	10.39
599.691	10.36
600.027	10.33
600.364	10.3
600.7	10.25
601.037	10.23
601.373	10.22
601.71	10.18
602.046	10.18
602.382	10.18
602.718	10.16
603.054	10.13
603.391	10.12
603.727	10.08
604.063	10.05
604.399	10.07
604.735	10.09
605.071	10.09
605.406	10.09
605.742	10.1
606.078	10.12
606.414	10.14
606.749	10.16
607.085	10.15
607.421	10.18
607.756	10.21
608.092	10.24
608.427	10.24
608.762	10.25
609.098	10.24
609.433	10.24
609.768	10.2
610.104	10.23
610.439	10.22
610.774	10.24
611.109	10.23
611.444	10.21
611.779	10.18
612.114	10.13
612.449	10.09
612.784	10.06
613.118	10.08
613.453	10.01
613.788	9.94
614.123	9.88
614.457	9.81
614.792	9.72
615.126	9.6
615.461	9.54
615.795	9.45
616.13	9.36
616.464	9.29
616.798	9.23
617.132	9.15
617.467	9.14
617.801	9.07
618.135	9.07
618.469	9.03
618.803	8.96
619.137	8.95
619.471	8.93
619.805	8.88
620.139	8.86
620.472	8.87
620.806	8.87
621.14	8.83
621.473	8.78
621.807	8.74
622.141	8.68
622.474	8.63
622.808	8.6
623.141	8.61
623.474	8.58
623.808	8.63
624.141	8.67
624.474	8.62
624.807	8.61
625.141	8.61
625.474	8.59
625.807	8.66
626.14	8.67
626.473	8.66
626.806	8.67
627.138	8.66
627.471	8.65
627.804	8.63
628.137	8.64
628.469	8.67
628.802	8.66
629.135	8.67
629.467	8.65
629.8	8.65
630.132	8.67
630.465	8.7
630.797	8.65
631.129	8.62
631.461	8.66
631.794	8.66
632.126	8.59
632.458	8.58
632.79	8.57
633.122	8.56
633.454	8.57
633.786	8.55
634.118	8.5
634.45	8.47
634.781	8.46
635.113	8.43
635.445	8.36
635.777	8.36
636.108	8.37
636.44	8.36
636.771	8.32
637.103	8.25
637.434	8.19
637.765	8.2
638.097	8.14
638.428	8.04
638.759	7.99
639.09	7.99
639.422	7.98
639.753	7.9
640.084	7.87
640.415	7.84
640.746	7.84
641.077	7.79
641.407	7.75
641.738	7.71
642.069	7.71
642.4	7.71
642.73	7.71
643.061	7.7
643.392	7.68
643.722	7.74
644.053	7.73
644.383	7.73
644.713	7.68
645.044	7.67
645.374	7.65
645.704	7.63
646.034	7.64
646.365	7.61
646.695	7.59
647.025	7.59
647.355	7.56
647.685	7.54
648.015	7.61
648.344	7.65
648.674	7.68
649.004	7.71
649.334	7.75
649.663	7.75
649.993	7.69
650.323	7.72
650.652	7.71
650.982	7.72
651.311	7.69
651.64	7.71
651.97	7.71
652.299	7.76
652.628	7.77
652.958	7.73
653.287	7.72
653.616	7.7
653.945	7.68
654.274	7.66
654.603	7.63
654.932	7.56
655.261	7.53
655.589	7.56
655.918	7.6
656.247	7.64
656.576	7.68
656.904	7.75
657.233	7.82
657.561	7.79
657.89	7.82
658.218	7.86
658.547	7.89
658.875	7.95
659.203	7.92
659.532	7.91
659.86	7.91
660.188	7.9
660.516	7.92
660.844	7.93
661.172	7.95
661.5	7.99
661.828	8
662.156	8
662.484	7.92
662.811	7.91
663.139	7.83
663.467	7.76
663.794	7.69
664.122	7.58
664.45	7.56
664.777	7.49
665.104	7.48
665.432	7.37
665.759	7.25
666.086	7.21
666.414	7.26
666.741	7.31
667.068	7.3
667.395	7.31
667.722	7.28
668.049	7.27
668.376	7.21
668.703	7.16
669.03	7.15
669.357	7.2
669.683	7.16
670.01	7.16
670.337	7.17
670.663	7.18
670.99	7.16
671.317	7.16
671.643	7.18
671.969	7.14
672.296	7.19
672.622	7.25
672.948	7.27
673.275	7.2
673.601	7.17
673.927	7.19
674.253	7.22
674.579	7.23
674.905	7.24
675.231	7.26
675.557	7.34
675.883	7.37
676.209	7.36
676.534	7.32
676.86	7.31
677.186	7.36
677.511	7.39
677.837	7.43
678.162	7.48
678.488	7.46
678.813	7.45
679.139	7.46
679.464	7.46
679.789	7.5
680.114	7.55
680.44	7.54
680.765	7.54
681.09	7.47
681.415	7.42
681.74	7.39
682.065	7.39
682.39	7.35
682.714	7.27
683.039	7.23
683.364	7.24
683.689	7.23
684.013	7.11
684.338	7.07
684.662	7.05
684.987	6.98
685.311	6.97
685.636	6.98
685.96	6.95
686.284	6.89
686.608	6.84
686.933	6.78
687.257	6.72
687.581	6.73
687.905	6.76
688.229	6.78
688.553	6.73
688.877	6.7
689.201	6.68
689.524	6.64
689.848	6.63
690.172	6.62
690.496	6.61
690.819	6.67
691.143	6.64
691.466	6.62
691.79	6.59
692.113	6.5
692.436	6.45
692.76	6.36
693.083	6.32
693.406	6.25
693.729	6.18
694.053	6.2
694.376	6.16
694.699	6.22
695.022	6.34
695.344	6.45
695.667	6.57
695.99	6.76
696.313	6.91
696.636	7.05
696.958	7.13
697.281	7.21
697.604	7.23
697.926	7.25
698.249	7.31
698.571	7.33
698.893	7.36
699.216	7.35
699.538	7.38
699.86	7.38
700.182	7.44
700.504	7.51
700.827	7.52
701.149	7.52
701.471	7.42
701.793	7.33
702.114	7.28
702.436	7.16
702.758	6.96
703.08	6.89
703.401	6.68
703.723	6.5
704.045	6.35
704.366	6.28
704.688	6.23
705.009	6.12
705.331	6.08
705.652	6.1
705.973	6.16
706.294	6.14
706.616	6.19
706.937	6.12
707.258	6.13
707.579	6.15
707.9	6.2
708.221	6.3
708.542	6.31
708.863	6.29
709.183	6.32
709.504	6.34
709.825	6.36
710.145	6.4
710.466	6.42
710.787	6.46
711.107	6.46
711.427	6.44
711.748	6.44
712.068	6.48
712.388	6.51
712.709	6.55
713.029	6.63
713.349	6.56
713.669	6.65
713.989	6.69
714.309	6.76
714.629	6.71
714.949	6.67
715.269	6.66
715.589	6.65
715.908	6.67
716.228	6.72
716.548	6.69
716.867	6.74
717.187	6.73
717.506	6.74
717.826	6.78
718.145	6.86
718.465	6.93
718.784	7.04
719.103	7.12
719.422	7.15
719.741	7.08
720.061	7.1
720.38	7.11
720.699	7.16
721.018	7.19
721.336	7.31
721.655	7.32
721.974	7.4
722.293	7.57
722.612	7.63
722.93	7.66
723.249	7.78
723.567	7.95
723.886	8.17
724.204	8.24
724.523	8.38
724.841	8.53
725.159	8.7
725.477	8.8
725.796	8.88
726.114	9.04
726.432	9.25
726.75	9.44
727.068	9.51
727.386	9.54
727.704	9.62
728.022	9.71
728.339	9.84
728.657	9.93
728.975	10.01
729.292	10.17
729.61	10.3
729.928	10.39
730.245	10.38
730.562	10.44
730.88	10.63
731.197	10.78
731.514	10.91
731.832	11.05
732.149	11.14
732.466	11.22
732.783	11.29
733.1	11.45
733.417	11.7
733.734	11.96
734.051	12.17
734.368	12.37
734.684	12.59
735.001	12.79
735.318	12.94
735.634	13.02
735.951	13.16
736.268	13.39
736.584	13.73
736.9	13.99
737.217	14.05
737.533	14.12
737.849	14.26
738.166	14.42
738.482	14.53
738.798	14.67
739.114	14.87
739.43	15
739.746	15.13
740.062	15.08
740.378	15.22
740.693	15.38
741.009	15.37
741.325	15.48
741.641	15.58
741.956	15.76
742.272	16.01
742.587	16.16
742.903	16.29
743.218	16.34
743.533	16.37
743.849	16.6
744.164	16.67
744.479	16.8
744.794	16.81
745.109	16.8
745.424	16.86
745.739	17
746.054	17.17
746.369	17.33
746.684	17.47
746.999	17.56
747.313	17.61
747.628	17.89
747.943	18.01
748.257	18.13
748.572	18.25
748.886	18.34
749.201	18.4
749.515	18.34
749.829	18.35
750.144	18.55
750.458	18.8
750.772	18.92
751.086	18.96
751.4	19.02
751.714	19.14
752.028	19.32
752.342	19.49
752.656	19.58
752.97	19.52
753.284	19.66
753.597	19.71
753.911	19.82
754.225	19.79
754.538	19.76
754.852	19.91
755.165	19.94
755.478	19.99
755.792	20.1
756.105	20.2
756.418	20.21
756.731	20.23
757.045	20.2
757.358	20.31
757.671	20.37
757.984	20.51
758.297	20.7
758.609	20.83
758.922	20.81
759.235	20.8
759.548	20.86
759.86	20.73
760.173	20.51
760.486	20.17
760.798	19.94
761.111	19.75
761.423	19.57
761.735	19.49
762.048	19.4
762.36	19.35
762.672	19.34
762.984	19.36
763.296	19.48
763.608	19.58
763.92	19.67
764.232	19.78
764.544	19.83
764.856	19.84
765.168	19.8
765.48	19.94
765.791	20.14
766.103	20.29
766.414	20.54
766.726	20.89
767.037	21.37
767.349	21.91
767.66	22.41
767.972	22.83
768.283	23.41
768.594	24.04
768.905	24.46
769.216	24.76
769.527	25.31
769.838	25.57
770.149	25.8
770.46	26.13
770.771	26.51
771.082	26.76
771.393	27.01
771.703	27.21
772.014	27.28
772.324	27.34
772.635	27.76
772.945	28.01
773.256	28.25
773.566	28.41
773.877	28.54
774.187	28.88
774.497	29.02
774.807	28.96
775.117	28.94
775.427	29.18
775.737	29.51
776.047	29.4
776.357	29.6
776.667	29.81
776.977	29.82
777.287	29.76
777.596	29.71
777.906	29.66
778.216	29.71
778.525	29.8
778.835	29.71
779.144	29.83
779.453	30
779.763	29.91
780.072	30.28
780.381	30.48
780.69	30.57
781	30.77
781.309	30.76
781.618	30.84
781.927	31
782.235	31.09
782.544	31.22
782.853	31.24
783.162	31.17
783.471	31.27
783.779	31.42
784.088	31.49
784.396	31.64
784.705	31.86
785.013	31.74
785.322	31.74
785.63	31.42
785.938	30.98
786.246	30.88
786.554	30.47
786.863	30.39
787.171	30.23
787.479	30.22
787.787	30.41
788.094	30.23
788.402	30.06
788.71	30.13
789.018	30.21
789.326	30.3
789.633	30.54
789.941	30.57
790.248	30.52
790.556	30.86
790.863	30.99
791.171	31.09
791.478	31.45
791.785	31.82
792.092	32.15
792.399	32.65
792.707	33.11
793.014	33.43
793.321	33.2
793.628	33.31
793.934	33.43
794.241	33.16
794.548	33.37
794.855	33.41
795.161	33.34
795.468	33.49
795.775	33.72
796.081	33.63
796.388	33.99
796.694	34.33
797	34.45
797.307	34.49
797.613	34.55
797.919	34.55
798.225	34.48
798.531	34.45
798.837	34.63
799.143	34.64
799.449	34.99
799.755	35.33
800.061	35.46
800.367	35.65
800.672	36.19
800.978	36.42
801.284	36.58
801.589	36.85
801.895	36.59
802.2	36.39
802.506	36.47
802.811	35.99
803.116	35.84
803.421	35.76
803.727	35.8
804.032	35.74
804.337	35.92
804.642	36.08
804.947	36.25
805.252	36.5
805.556	36.53
805.861	36.43
806.166	36.38
806.471	36.64
806.775	36.52
807.08	36.49
807.384	36.55
807.689	36.68
807.993	36.75
808.298	37.17
808.602	37.28
808.906	37.4
809.211	38.08
809.515	38.06
809.819	38.01
810.123	38.36
810.427	38.54
810.731	38.62
811.035	38.85
811.338	38.95
811.642	38.73
811.946	38.93
812.25	39.13
812.553	39.5
812.857	39.33
813.16	39.62
813.464	39.83
813.767	40.39
814.07	40.29
814.374	40.5
814.677	40.33
814.98	40.25
815.283	40.13
815.586	39.78
815.889	39.74
816.192	39.92
816.495	39.49
816.798	39.01
817.101	38.59
817.404	37.86
817.706	37.22
818.009	36.3
818.312	35.35
818.614	33.85
818.917	32.17
819.219	29.79
819.521	27.37
819.824	25.3
820.126	23.68
820.428	22.6
820.73	21.69
821.032	21.1
821.334	20.78
821.636	20.57
821.938	20.33
822.24	20.14
822.542	19.98
822.844	19.91
823.145	19.87
823.447	19.75
823.749	19.63
824.05	19.44
824.352	19.31
824.653	19.22
824.955	19.18
825.256	19.12
825.557	19.34
825.858	19.67
826.16	20.07
826.461	20.51
826.762	21
827.063	21.5
827.364	22.07
827.665	22.6
827.965	22.97
828.266	23.38
828.567	23.82
828.868	24.13
829.168	24.4
829.469	24.63
829.769	24.93
830.07	25.25
830.37	25.65
830.67	26.12
830.971	26.76
831.271	27.27
831.571	27.69
831.871	27.88
832.171	27.81
832.471	28.22
832.771	28.22
833.071	28.42
833.371	28.95
833.671	29.25
833.971	29.38
834.27	29.53
834.57	29.76
834.869	29.69
835.169	29.99
835.468	30.02
835.768	30.14
836.067	30.38
836.367	30.72
836.666	31.53
836.965	32.28
837.264	32.89
837.563	33.86
837.862	35.05
838.161	36.41
838.46	38.11
838.759	38.88
839.058	40.15
839.356	40.99
839.655	41.29
839.954	41.6
840.252	42.03
840.551	42.66
840.849	43
841.148	43.94
841.446	44.39
841.744	44.73
842.043	45.07
842.341	45.34
842.639	45.91
842.937	45.38
843.235	45.82
843.533	46.31
843.831	46.8
844.129	47.79
844.427	48.43
844.724	49.26
845.022	50.35
845.32	51.12
845.617	52.35
845.915	54.12
846.212	55.48
846.51	56.18
846.807	57.03
847.104	57.84
847.402	58.44
847.699	58.32
847.996	58.81
848.293	58.76
848.59	59.29
848.887	60.39
849.184	61.52
849.481	61.97
849.778	61.69
850.074	61.84
850.371	62.14
850.668	62.76
850.964	62.75
851.261	62.39
851.557	62.3
851.854	61.95
852.15	61.56
852.446	61.89
852.743	62.22
853.039	61.79
853.335	61.75
853.631	61.77
853.927	62.76
854.223	64.31
854.519	65.09
854.815	64.82
855.111	63.39
855.406	63.57
855.702	63.48
855.998	64.11
856.293	64.81
856.589	65.15
856.884	65.14
857.18	65.1
857.475	65.34
857.77	66.26
858.066	66.55
858.361	66.44
858.656	66.27
858.951	65.71
859.246	65.63
859.541	65.67
859.836	65.05
860.131	64.3
860.426	63.32
860.72	64.68
861.015	65.69
861.31	66.38
861.604	65.65
861.899	66.1
862.193	66.12
862.487	66.2
862.782	66.18
863.076	65.76
863.37	65.98
863.664	66.49
863.959	65.72
864.253	66.01
864.547	66.24
864.841	65.65
865.135	65.77
865.428	65.39
865.722	65.86
866.016	66.67
866.31	66.89
866.603	66.33
866.897	65.04
867.19	63.67
867.484	63.28
867.777	63.03
868.07	62.05
868.364	62.5
868.657	62.48
868.95	61.75
869.243	61.74
869.536	61
869.829	59.64
870.122	59.45
870.415	58.85
870.708	59.01
871	59.27
871.293	58.95
871.586	59.45
871.878	58.54
872.171	58.69
872.463	58.59
872.756	58.84
873.048	59.21
873.341	59.51
873.633	59.6
873.925	60.36
874.217	60.69
874.509	59.81
874.801	59.05
875.093	58.81
875.385	58.82
875.677	59.1
875.969	60.45
