Data from pcis_p_m4_p5_Reflection_3.txt Node
Date: Wed Jul 12 18:00:13 ART 2017
User: rodoncho
Spectrometer: USB2E3644
Trigger mode: 4
Integration Time (sec): 6.000000E-2
Scans to average: 10
Electric dark correction enabled: true
Nonlinearity correction enabled: false
Boxcar width: 10
XAxis mode: Wavelengths
Number of Pixels in Spectrum: 2048
>>>>>Begin Spectral Data<<<<<
178.315	7.38
178.696	0.65
179.076	3.64
179.457	13.33
179.838	25.78
180.218	25.11
180.599	31.84
180.979	80
181.36	25.64
181.74	-27.96
182.121	-12.12
182.501	155.27
182.881	238.6
183.262	657.47
183.642	-254.81
184.022	-71.63
184.402	-18.59
184.783	3.29
185.163	19.54
185.543	24.38
185.923	36
186.303	37.87
186.683	39.94
187.063	51.42
187.443	56.74
187.823	57.23
188.203	57.45
188.583	64.42
188.963	65.39
189.343	73.45
189.723	80.14
190.102	82.21
190.482	89.79
190.862	96.18
191.242	101.33
191.621	98.54
192.001	102.28
192.38	98.42
192.76	98.31
193.14	99.62
193.519	103.54
193.898	102.01
194.278	104.02
194.657	105.46
195.037	102.33
195.416	101.51
195.795	104.26
196.175	107.09
196.554	102.66
196.933	101.46
197.312	99.77
197.692	99.42
198.071	102.03
198.45	100.47
198.829	100.02
199.208	100.45
199.587	103.1
199.966	103.81
200.345	104.06
200.724	104.16
201.103	104.84
201.482	106.27
201.86	107.16
202.239	106.43
202.618	105.32
202.997	106.22
203.375	107.74
203.754	106.91
204.133	106.31
204.511	107.64
204.89	108.72
205.269	107.99
205.647	107.31
206.026	107.04
206.404	107.56
206.782	107.59
207.161	106.62
207.539	107.33
207.918	105.24
208.296	106.79
208.674	105.71
209.052	103.74
209.431	101.73
209.809	101.63
210.187	100.35
210.565	100.44
210.943	100.1
211.321	99.18
211.699	100.35
212.077	99.93
212.455	99.85
212.833	98.58
213.211	97.68
213.589	96.56
213.967	95.79
214.345	95.12
214.722	95.99
215.1	95.84
215.478	95.62
215.855	96.2
216.233	95.27
216.611	96.39
216.988	97.58
217.366	97.36
217.743	96.51
218.121	97.41
218.498	97.72
218.876	97.51
219.253	97.22
219.631	96.54
220.008	97.56
220.385	98.7
220.762	99.72
221.14	100.24
221.517	102.03
221.894	103.17
222.271	105.34
222.648	105.44
223.025	105.81
223.402	104.61
223.78	104.13
224.157	104.03
224.533	104.25
224.91	105.5
225.287	106.07
225.664	107.86
226.041	108.22
226.418	108.17
226.795	106.69
227.171	107.88
227.548	108.42
227.925	108.64
228.301	108.85
228.678	110.46
229.055	111.46
229.431	111.12
229.808	110.94
230.184	111.12
230.561	111.57
230.937	111.47
231.313	111.05
231.69	111.96
232.066	110.76
232.442	109.85
232.819	108.49
233.195	108.93
233.571	107.96
233.947	108.54
234.323	108.29
234.699	110.25
235.075	110.97
235.451	110.86
235.827	111.3
236.203	111.31
236.579	111.8
236.955	112.62
237.331	114.53
237.707	115.87
238.083	116.07
238.459	117.93
238.834	123.38
239.21	128.84
239.586	134.07
239.961	139.39
240.337	143.35
240.713	145.62
241.088	150.68
241.464	156
241.839	160.94
242.215	168.05
242.59	182.27
242.965	215.11
243.341	289.02
243.716	436.67
244.091	780.95
244.467	1490.85
244.842	6949.59
245.217	-3759.11
245.592	-2035.49
245.967	-1604.14
246.343	-2030.73
246.718	-3894.98
247.093	-3679.65
247.468	-3411.24
247.843	-2295.39
248.218	-1353.75
248.593	-806.15
248.967	-585.42
249.342	-519.34
249.717	-511.48
250.092	-530.69
250.467	-646.11
250.841	-1245.6
251.216	5451.57
251.591	939.59
251.965	544.55
252.34	461.19
252.714	420.73
253.089	398.84
253.463	396.47
253.838	427.58
254.212	467.08
254.587	583.24
254.961	757.51
255.335	1445.09
255.71	-2393.07
256.084	-524.57
256.458	-279.1
256.832	-197.37
257.206	-166.27
257.581	-151.45
257.955	-142.22
258.329	-134.2
258.703	-126.63
259.077	-118.83
259.451	-111.7
259.825	-105.49
260.199	-102.55
260.572	-99.66
260.946	-96.41
261.32	-94.41
261.694	-92.32
262.068	-89.88
262.441	-89.06
262.815	-87.77
263.189	-86.91
263.562	-89.83
263.936	-101.09
264.309	-118.73
264.683	-140.95
265.056	-153.79
265.43	-155.95
265.803	-151.42
266.176	-148.58
266.55	-148.54
266.923	-145.57
267.296	-141.4
267.67	-135.58
268.043	-124.52
268.416	-114.44
268.789	-103.59
269.162	-91.72
269.535	-84.27
269.908	-80.44
270.281	-78.49
270.654	-79.43
271.027	-81.51
271.4	-83.2
271.773	-83.18
272.146	-82.47
272.519	-78.22
272.891	-75.47
273.264	-75.05
273.637	-74.13
274.01	-73.73
274.382	-71.83
274.755	-69.97
275.127	-69.56
275.5	-69.36
275.872	-69.13
276.245	-70.07
276.617	-71.63
276.99	-75.71
277.362	-78.82
277.734	-79.87
278.107	-78.24
278.479	-74.45
278.851	-71.79
279.223	-68.44
279.596	-66.2
279.968	-64.66
280.34	-65.56
280.712	-64.59
281.084	-61.4
281.456	-57.64
281.828	-53.84
282.2	-50.35
282.572	-47.49
282.944	-45.55
283.315	-44.74
283.687	-44.61
284.059	-43.9
284.431	-43.43
284.802	-42.74
285.174	-41.63
285.546	-40.58
285.917	-40.22
286.289	-39.63
286.66	-38.66
287.032	-38.45
287.403	-38.29
287.775	-38.33
288.146	-37.53
288.518	-37.32
288.889	-37.37
289.26	-38.6
289.632	-39.47
290.003	-41.06
290.374	-42.29
290.745	-42.21
291.116	-41.4
291.487	-40.28
291.858	-39.13
292.229	-37.7
292.6	-35.87
292.971	-34.71
293.342	-33.26
293.713	-31.54
294.084	-30.4
294.455	-30.1
294.826	-29.31
295.196	-28.61
295.567	-27.99
295.938	-27.92
296.308	-27.99
296.679	-27.38
297.05	-26.37
297.42	-25.77
297.791	-24.59
298.161	-23.86
298.532	-23.55
298.902	-23.19
299.272	-22.65
299.643	-21.94
300.013	-21.88
300.383	-21.86
300.754	-21.65
301.124	-21.64
301.494	-21.63
301.864	-21.57
302.234	-21.36
302.604	-21.71
302.974	-21.8
303.344	-21.97
303.714	-21.87
304.084	-20.84
304.454	-20.4
304.824	-19.72
305.194	-19.2
305.563	-18.55
305.933	-17.42
306.303	-16.16
306.673	-15.77
307.042	-15.54
307.412	-15.15
307.781	-14.08
308.151	-13.35
308.521	-13.04
308.89	-12.73
309.259	-12.41
309.629	-11.97
309.998	-11.63
310.368	-11.13
310.737	-11.03
311.106	-10.53
311.475	-9.87
311.845	-9.65
312.214	-9.45
312.583	-9.29
312.952	-8.99
313.321	-9.06
313.69	-9.53
314.059	-10.07
314.428	-10.28
314.797	-10.56
315.166	-11.22
315.535	-11.77
315.904	-12.06
316.272	-12.03
316.641	-12.06
317.01	-12.28
317.379	-12.5
317.747	-12.5
318.116	-12.4
318.484	-12.19
318.853	-11.95
319.221	-11.78
319.59	-11.75
319.958	-11.4
320.327	-11.24
320.695	-11.04
321.063	-10.79
321.432	-10.41
321.8	-10.02
322.168	-8.81
322.536	-7.92
322.905	-6.95
323.273	-6.59
323.641	-6.22
324.009	-6.08
324.377	-5.87
324.745	-5.46
325.113	-5.15
325.481	-4.65
325.849	-4.34
326.216	-3.83
326.584	-3.45
326.952	-3.18
327.32	-2.8
327.687	-2.38
328.055	-1.97
328.423	-1.81
328.79	-1.44
329.158	-1.01
329.525	-0.57
329.893	-0.69
330.26	-0.71
330.628	-0.89
330.995	-0.58
331.362	-0.36
331.73	0.03
332.097	0.37
332.464	0.66
332.831	0.83
333.199	1
333.566	1.17
333.933	1.12
334.3	1.05
334.667	1.09
335.034	1.24
335.401	1.18
335.768	1.05
336.135	1.03
336.502	1.1
336.868	1.24
337.235	1.35
337.602	1.61
337.969	1.89
338.335	2.26
338.702	2.43
339.069	2.57
339.435	2.73
339.802	2.86
340.168	3.02
340.535	3.23
340.901	3.37
341.267	3.58
341.634	3.92
342	4.25
342.366	4.48
342.733	4.63
343.099	4.94
343.465	5.36
343.831	5.73
344.197	5.91
344.563	6.02
344.929	6.21
345.295	6.42
345.661	6.64
346.027	6.82
346.393	6.95
346.759	7.01
347.125	7.07
347.491	7.26
347.856	7.3
348.222	7.43
348.588	7.51
348.953	7.57
349.319	7.66
349.684	7.7
350.05	7.87
350.415	8.06
350.781	8.16
351.146	8.13
351.512	8.16
351.877	8.32
352.242	8.41
352.608	8.42
352.973	8.29
353.338	8.32
353.703	8.37
354.068	8.47
354.433	8.65
354.798	8.79
355.164	8.81
355.528	8.9
355.893	8.98
356.258	9.05
356.623	9.15
356.988	9.26
357.353	9.42
357.718	9.54
358.082	9.64
358.447	9.59
358.812	9.74
359.176	9.83
359.541	9.76
359.905	9.84
360.27	9.99
360.634	10.17
360.999	10.17
361.363	10.22
361.728	10.3
362.092	10.37
362.456	10.4
362.821	10.57
363.185	10.68
363.549	10.76
363.913	10.83
364.277	10.86
364.641	10.87
365.005	10.98
365.369	11.01
365.733	11.02
366.097	11.17
366.461	11.15
366.825	11.26
367.189	11.41
367.553	11.42
367.916	11.43
368.28	11.51
368.644	11.72
369.007	11.86
369.371	11.88
369.734	11.95
370.098	12.12
370.461	12.13
370.825	12.19
371.188	12.22
371.552	12.34
371.915	12.52
372.278	12.72
372.642	12.78
373.005	12.84
373.368	12.86
373.731	12.94
374.094	13.05
374.457	13.05
374.82	13.09
375.183	13.16
375.546	13.22
375.909	13.24
376.272	13.18
376.635	13.19
376.998	13.28
377.361	13.29
377.723	13.24
378.086	13.29
378.449	13.32
378.811	13.39
379.174	13.37
379.537	13.34
379.899	13.31
380.262	13.34
380.624	13.31
380.987	13.39
381.349	13.37
381.711	13.34
382.074	13.38
382.436	13.46
382.798	13.54
383.16	13.58
383.522	13.64
383.884	13.69
384.247	13.71
384.609	13.69
384.971	13.73
385.333	13.74
385.695	13.74
386.056	13.77
386.418	13.78
386.78	13.79
387.142	13.76
387.504	13.78
387.865	13.73
388.227	13.77
388.589	13.73
388.95	13.76
389.312	13.78
389.673	13.79
390.035	13.74
390.396	13.69
390.758	13.63
391.119	13.59
391.48	13.56
391.842	13.55
392.203	13.52
392.564	13.51
392.925	13.5
393.286	13.47
393.648	13.44
394.009	13.44
394.37	13.42
394.731	13.4
395.092	13.35
395.452	13.34
395.813	13.31
396.174	13.35
396.535	13.32
396.896	13.31
397.257	13.29
397.617	13.28
397.978	13.28
398.338	13.32
398.699	13.32
399.06	13.32
399.42	13.27
399.781	13.24
400.141	13.16
400.501	13.13
400.862	13.1
401.222	13.09
401.582	13.05
401.943	13.03
402.303	13.01
402.663	13.02
403.023	13.03
403.383	13.02
403.743	12.99
404.103	13
404.463	13
404.823	12.99
405.183	12.99
405.543	12.96
405.903	12.9
406.262	12.83
406.622	12.81
406.982	12.83
407.342	12.84
407.701	12.86
408.061	12.83
408.42	12.8
408.78	12.76
409.139	12.75
409.499	12.75
409.858	12.76
410.217	12.7
410.577	12.63
410.936	12.6
411.295	12.56
411.655	12.5
412.014	12.43
412.373	12.35
412.732	12.27
413.091	12.2
413.45	12.15
413.809	12.11
414.168	12.01
414.527	11.91
414.886	11.81
415.245	11.71
415.603	11.61
415.962	11.53
416.321	11.44
416.679	11.35
417.038	11.24
417.397	11.13
417.755	11.05
418.114	10.97
418.472	10.89
418.831	10.82
419.189	10.76
419.547	10.7
419.906	10.66
420.264	10.59
420.622	10.54
420.981	10.47
421.339	10.42
421.697	10.38
422.055	10.33
422.413	10.3
422.771	10.27
423.129	10.26
423.487	10.25
423.845	10.23
424.203	10.2
424.56	10.19
424.918	10.18
425.276	10.18
425.634	10.21
425.991	10.22
426.349	10.22
426.707	10.2
427.064	10.2
427.422	10.18
427.779	10.19
428.137	10.17
428.494	10.18
428.851	10.17
429.209	10.15
429.566	10.15
429.923	10.12
430.28	10.08
430.637	10.05
430.995	10.02
431.352	10.01
431.709	9.99
432.066	9.97
432.423	9.96
432.78	9.92
433.137	9.88
433.493	9.87
433.85	9.84
434.207	9.79
434.564	9.76
434.92	9.71
435.277	9.67
435.634	9.63
435.99	9.58
436.347	9.55
436.703	9.49
437.06	9.45
437.416	9.41
437.773	9.39
438.129	9.36
438.485	9.34
438.841	9.31
439.198	9.29
439.554	9.28
439.91	9.26
440.266	9.23
440.622	9.2
440.978	9.16
441.334	9.12
441.69	9.11
442.046	9.07
442.402	9.03
442.758	9
443.113	8.96
443.469	8.93
443.825	8.9
444.181	8.89
444.536	8.89
444.892	8.89
445.247	8.88
445.603	8.88
445.958	8.86
446.314	8.85
446.669	8.83
447.025	8.81
447.38	8.8
447.735	8.79
448.09	8.78
448.446	8.77
448.801	8.76
449.156	8.75
449.511	8.76
449.866	8.77
450.221	8.79
450.576	8.82
450.931	8.84
451.286	8.84
451.641	8.83
451.995	8.82
452.35	8.81
452.705	8.81
453.06	8.79
453.414	8.8
453.769	8.8
454.123	8.79
454.478	8.77
454.832	8.75
455.187	8.7
455.541	8.66
455.896	8.59
456.25	8.55
456.604	8.53
456.958	8.47
457.313	8.45
457.667	8.42
458.021	8.41
458.375	8.39
458.729	8.4
459.083	8.4
459.437	8.39
459.791	8.39
460.145	8.37
460.499	8.37
460.852	8.35
461.206	8.35
461.56	8.35
461.914	8.35
462.267	8.35
462.621	8.38
462.974	8.39
463.328	8.42
463.681	8.44
464.035	8.44
464.388	8.47
464.742	8.47
465.095	8.46
465.448	8.46
465.801	8.47
466.155	8.46
466.508	8.45
466.861	8.44
467.214	8.41
467.567	8.4
467.92	8.38
468.273	8.38
468.626	8.35
468.979	8.32
469.332	8.29
469.684	8.28
470.037	8.26
470.39	8.25
470.743	8.25
471.095	8.25
471.448	8.26
471.8	8.27
472.153	8.27
472.505	8.29
472.858	8.3
473.21	8.29
473.562	8.27
473.915	8.25
474.267	8.25
474.619	8.24
474.971	8.25
475.324	8.25
475.676	8.23
476.028	8.22
476.38	8.24
476.732	8.24
477.084	8.23
477.436	8.22
477.787	8.22
478.139	8.2
478.491	8.18
478.843	8.15
479.195	8.1
479.546	8.04
479.898	7.95
480.249	7.87
480.601	7.79
480.952	7.74
481.304	7.71
481.655	7.69
482.007	7.68
482.358	7.66
482.709	7.63
483.061	7.61
483.412	7.6
483.763	7.57
484.114	7.55
484.465	7.54
484.816	7.51
485.167	7.49
485.518	7.48
485.869	7.47
486.22	7.47
486.571	7.47
486.922	7.47
487.272	7.49
487.623	7.49
487.974	7.5
488.324	7.51
488.675	7.51
489.025	7.52
489.376	7.52
489.726	7.54
490.077	7.55
490.427	7.58
490.778	7.58
491.128	7.62
491.478	7.65
491.828	7.68
492.179	7.73
492.529	7.76
492.879	7.79
493.229	7.81
493.579	7.81
493.929	7.82
494.279	7.83
494.629	7.85
494.979	7.89
495.328	7.92
495.678	7.97
496.028	8.02
496.378	8.03
496.727	8.05
497.077	8.08
497.426	8.1
497.776	8.09
498.125	8.11
498.475	8.11
498.824	8.13
499.174	8.13
499.523	8.13
499.872	8.15
500.221	8.15
500.571	8.17
500.92	8.21
501.269	8.22
501.618	8.23
501.967	8.23
502.316	8.23
502.665	8.25
503.014	8.27
503.363	8.28
503.711	8.3
504.06	8.31
504.409	8.3
504.758	8.3
505.106	8.3
505.455	8.31
505.803	8.3
506.152	8.29
506.5	8.29
506.849	8.28
507.197	8.28
507.546	8.29
507.894	8.29
508.242	8.29
508.59	8.3
508.939	8.3
509.287	8.31
509.635	8.31
509.983	8.32
510.331	8.3
510.679	8.3
511.027	8.31
511.375	8.3
511.723	8.3
512.07	8.31
512.418	8.34
512.766	8.35
513.114	8.37
513.461	8.38
513.809	8.39
514.156	8.42
514.504	8.43
514.851	8.45
515.199	8.45
515.546	8.44
515.893	8.44
516.241	8.46
516.588	8.46
516.935	8.46
517.282	8.46
517.63	8.48
517.977	8.49
518.324	8.5
518.671	8.51
519.018	8.52
519.365	8.54
519.711	8.54
520.058	8.54
520.405	8.56
520.752	8.57
521.099	8.59
521.445	8.61
521.792	8.6
522.138	8.59
522.485	8.61
522.832	8.62
523.178	8.65
523.524	8.68
523.871	8.69
524.217	8.71
524.563	8.69
524.91	8.66
525.256	8.62
525.602	8.6
525.948	8.57
526.294	8.56
526.64	8.54
526.986	8.54
527.332	8.54
527.678	8.54
528.024	8.54
528.37	8.53
528.716	8.54
529.061	8.54
529.407	8.56
529.753	8.55
530.098	8.55
530.444	8.54
530.789	8.53
531.135	8.54
531.48	8.55
531.826	8.58
532.171	8.61
532.516	8.65
532.862	8.68
533.207	8.72
533.552	8.75
533.897	8.79
534.242	8.81
534.587	8.83
534.932	8.85
535.277	8.86
535.622	8.89
535.967	8.91
536.312	8.93
536.657	8.96
537.001	9.02
537.346	9.05
537.691	9.09
538.035	9.1
538.38	9.11
538.724	9.12
539.069	9.13
539.413	9.13
539.758	9.15
540.102	9.19
540.446	9.2
540.791	9.22
541.135	9.25
541.479	9.26
541.823	9.29
542.167	9.31
542.512	9.33
542.856	9.34
543.2	9.34
543.543	9.34
543.887	9.37
544.231	9.37
544.575	9.39
544.919	9.43
545.262	9.5
545.606	9.54
545.95	9.6
546.293	9.62
546.637	9.69
546.98	9.74
547.324	9.76
547.667	9.82
548.011	9.84
548.354	9.85
548.697	9.89
549.04	9.95
549.384	9.97
549.727	10.02
550.07	10.07
550.413	10.11
550.756	10.18
551.099	10.21
551.442	10.27
551.785	10.34
552.128	10.39
552.47	10.41
552.813	10.45
553.156	10.48
553.499	10.55
553.841	10.58
554.184	10.61
554.526	10.66
554.869	10.7
555.211	10.75
555.554	10.82
555.896	10.85
556.238	10.9
556.581	10.97
556.923	11.02
557.265	11.08
557.607	11.16
557.949	11.21
558.291	11.29
558.633	11.34
558.975	11.38
559.317	11.45
559.659	11.54
560.001	11.6
560.343	11.66
560.685	11.71
561.026	11.8
561.368	11.85
561.71	11.94
562.051	12.02
562.393	12.1
562.734	12.18
563.076	12.3
563.417	12.38
563.759	12.46
564.1	12.57
564.441	12.68
564.782	12.77
565.124	12.85
565.465	12.93
565.806	13.03
566.147	13.14
566.488	13.25
566.829	13.32
567.17	13.43
567.511	13.57
567.851	13.69
568.192	13.8
568.533	13.95
568.874	14.07
569.214	14.22
569.555	14.35
569.895	14.49
570.236	14.62
570.576	14.77
570.917	14.92
571.257	15.07
571.598	15.22
571.938	15.39
572.278	15.58
572.618	15.74
572.959	15.88
573.299	16.03
573.639	16.17
573.979	16.36
574.319	16.52
574.659	16.66
574.999	16.81
575.339	16.96
575.678	17.12
576.018	17.31
576.358	17.44
576.698	17.65
577.037	17.83
577.377	18
577.716	18.22
578.056	18.4
578.395	18.58
578.735	18.79
579.074	18.98
579.413	19.13
579.753	19.35
580.092	19.56
580.431	19.79
580.77	20.01
581.109	20.23
581.448	20.43
581.787	20.62
582.126	20.84
582.465	21.05
582.804	21.29
583.143	21.54
583.482	21.78
583.82	21.97
584.159	22.19
584.498	22.39
584.836	22.59
585.175	22.84
585.514	23.03
585.852	23.26
586.19	23.49
586.529	23.78
586.867	24.02
587.205	24.24
587.544	24.43
587.882	24.65
588.22	24.87
588.558	25.06
588.896	25.31
589.234	25.53
589.572	25.71
589.91	25.9
590.248	26.09
590.586	26.3
590.924	26.54
591.262	26.74
591.599	26.98
591.937	27.17
592.275	27.34
592.612	27.55
592.95	27.75
593.287	27.97
593.625	28.22
593.962	28.45
594.299	28.69
594.637	28.91
594.974	29.11
595.311	29.28
595.648	29.47
595.985	29.61
596.322	29.74
596.659	29.93
596.996	30.04
597.333	30.17
597.67	30.32
598.007	30.44
598.344	30.59
598.681	30.72
599.017	30.84
599.354	31.02
599.691	31.18
600.027	31.34
600.364	31.53
600.7	31.67
601.037	31.87
601.373	32.03
601.71	32.2
602.046	32.38
602.382	32.53
602.718	32.63
603.054	32.76
603.391	32.89
603.727	32.96
604.063	33.08
604.399	33.13
604.735	33.24
605.071	33.33
605.406	33.42
605.742	33.53
606.078	33.71
606.414	33.84
606.749	33.98
607.085	34.06
607.421	34.14
607.756	34.22
608.092	34.31
608.427	34.38
608.762	34.41
609.098	34.47
609.433	34.53
609.768	34.61
610.104	34.69
610.439	34.74
610.774	34.84
611.109	34.94
611.444	35.07
611.779	35.11
612.114	35.19
612.449	35.26
612.784	35.34
613.118	35.33
613.453	35.32
613.788	35.31
614.123	35.35
614.457	35.44
614.792	35.53
615.126	35.56
615.461	35.63
615.795	35.74
616.13	35.75
616.464	35.83
616.798	35.93
617.132	35.95
617.467	36.05
617.801	36.11
618.135	36.15
618.469	36.19
618.803	36.25
619.137	36.3
619.471	36.35
619.805	36.45
620.139	36.5
620.472	36.62
620.806	36.7
621.14	36.74
621.473	36.78
621.807	36.82
622.141	36.84
622.474	36.86
622.808	36.88
623.141	36.94
623.474	36.98
623.808	36.98
624.141	37.06
624.474	37.09
624.807	37.16
625.141	37.21
625.474	37.25
625.807	37.32
626.14	37.31
626.473	37.38
626.806	37.36
627.138	37.41
627.471	37.39
627.804	37.43
628.137	37.51
628.469	37.51
628.802	37.47
629.135	37.52
629.467	37.56
629.8	37.6
630.132	37.63
630.465	37.67
630.797	37.72
631.129	37.78
631.461	37.81
631.794	37.8
632.126	37.83
632.458	37.85
632.79	37.88
633.122	37.93
633.454	37.92
633.786	37.93
634.118	37.9
634.45	37.99
634.781	38
635.113	38.02
635.445	38.06
635.777	38.13
636.108	38.11
636.44	38.17
636.771	38.16
637.103	38.17
637.434	38.17
637.765	38.24
638.097	38.19
638.428	38.17
638.759	38.16
639.09	38.16
639.422	38.15
639.753	38.11
640.084	38.12
640.415	38.13
640.746	38.18
641.077	38.17
641.407	38.14
641.738	38.12
642.069	38.08
642.4	38.07
642.73	38.07
643.061	38.06
643.392	38.06
643.722	38.08
644.053	38.08
644.383	38.11
644.713	38.1
645.044	38.15
645.374	38.17
645.704	38.17
646.034	38.15
646.365	38.13
646.695	38.19
647.025	38.2
647.355	38.18
647.685	38.16
648.015	38.17
648.344	38.25
648.674	38.28
649.004	38.36
649.334	38.48
649.663	38.59
649.993	38.65
650.323	38.68
650.652	38.71
650.982	38.76
651.311	38.76
651.64	38.65
651.97	38.62
652.299	38.71
652.628	38.75
652.958	38.8
653.287	38.87
653.616	38.87
653.945	38.87
654.274	38.88
654.603	38.88
654.932	38.94
655.261	38.96
655.589	39
655.918	39
656.247	38.99
656.576	38.99
656.904	39.04
657.233	39.09
657.561	39.13
657.89	39.14
658.218	39.12
658.547	39.21
658.875	39.23
659.203	39.21
659.532	39.23
659.86	39.23
660.188	39.18
660.516	39.15
660.844	39.12
661.172	39.16
661.5	39.18
661.828	39.16
662.156	39.09
662.484	39.07
662.811	39.04
663.139	39.01
663.467	38.95
663.794	38.89
664.122	38.88
664.45	38.83
664.777	38.8
665.104	38.88
665.432	38.76
665.759	38.79
666.086	38.79
666.414	38.77
666.741	38.79
667.068	38.83
667.395	38.91
667.722	39.04
668.049	39.09
668.376	39.08
668.703	39.09
669.03	39.14
669.357	39.12
669.683	39.17
670.01	39.15
670.337	39.22
670.663	39.26
670.99	39.18
671.317	39.18
671.643	39.28
671.969	39.24
672.296	39.33
672.622	39.32
672.948	39.3
673.275	39.23
673.601	39.22
673.927	39.24
674.253	39.18
674.579	39.17
674.905	39.11
675.231	39.12
675.557	39.18
675.883	39.2
676.209	39.22
676.534	39.18
676.86	39.2
677.186	39.18
677.511	39.13
677.837	39.22
678.162	39.26
678.488	39.2
678.813	39.28
679.139	39.29
679.464	39.3
679.789	39.36
680.114	39.46
680.44	39.47
680.765	39.5
681.09	39.54
681.415	39.45
681.74	39.47
682.065	39.51
682.39	39.54
682.714	39.5
683.039	39.53
683.364	39.57
683.689	39.61
684.013	39.62
684.338	39.64
684.662	39.68
684.987	39.67
685.311	39.71
685.636	39.69
685.96	39.67
686.284	39.65
686.608	39.65
686.933	39.64
687.257	39.57
687.581	39.59
687.905	39.5
688.229	39.57
688.553	39.57
688.877	39.52
689.201	39.4
689.524	39.36
689.848	39.34
690.172	39.28
690.496	39.2
690.819	39.22
691.143	39.22
691.466	39.12
691.79	39.13
692.113	39.12
692.436	39.11
692.76	39.19
693.083	39.15
693.406	39.12
693.729	39.09
694.053	39.16
694.376	39.03
694.699	39.09
695.022	39.22
695.344	39.28
695.667	39.5
695.99	39.65
696.313	39.79
696.636	39.94
696.958	39.92
697.281	39.93
697.604	39.95
697.926	39.97
698.249	40
698.571	39.98
698.893	39.95
699.216	39.92
699.538	39.85
699.86	39.93
700.182	39.88
700.504	39.9
700.827	39.9
701.149	39.96
701.471	39.97
701.793	39.79
702.114	39.7
702.436	39.55
702.758	39.5
703.08	39.38
703.401	39.23
703.723	39.25
704.045	39.25
704.366	39.19
704.688	39.17
705.009	39.26
705.331	39.21
705.652	39.19
705.973	39.13
706.294	39.18
706.616	39.16
706.937	39.3
707.258	39.37
707.579	39.43
707.9	39.52
708.221	39.63
708.542	39.84
708.863	39.9
709.183	39.85
709.504	39.87
709.825	39.96
710.145	39.96
710.466	40.09
710.787	40.09
711.107	40.02
711.427	40
711.748	39.92
712.068	39.9
712.388	40
712.709	40.07
713.029	40.16
713.349	40.12
713.669	40.07
713.989	40.06
714.309	40.11
714.629	40.03
714.949	40.05
715.269	39.85
715.589	39.84
715.908	39.92
716.228	39.92
716.548	39.84
716.867	39.83
717.187	39.8
717.506	39.77
717.826	39.82
718.145	39.87
718.465	39.95
718.784	40.06
719.103	40.04
719.422	40.03
719.741	40.02
720.061	40.23
720.38	40.37
720.699	40.31
721.018	40.29
721.336	40.37
721.655	40.31
721.974	40.6
722.293	40.69
722.612	40.85
722.93	40.9
723.249	40.99
723.567	41.06
723.886	41.13
724.204	41.25
724.523	41.42
724.841	41.4
725.159	41.45
725.477	41.61
725.796	41.77
726.114	41.92
726.432	42.05
726.75	42.07
727.068	41.96
727.386	42.09
727.704	42.26
728.022	42.39
728.339	42.57
728.657	42.56
728.975	42.58
729.292	42.49
729.61	42.58
729.928	42.59
730.245	42.64
730.562	42.63
730.88	42.7
731.197	42.69
731.514	42.89
731.832	43.08
732.149	43.1
732.466	43.08
732.783	43.14
733.1	43.24
733.417	43.35
733.734	43.58
734.051	43.56
734.368	43.56
734.684	43.52
735.001	43.54
735.318	43.52
735.634	43.72
735.951	43.88
736.268	43.9
736.584	44.01
736.9	44.19
737.217	44.39
737.533	44.51
737.849	44.67
738.166	44.63
738.482	44.64
738.798	44.64
739.114	44.87
739.43	44.92
739.746	44.86
740.062	44.9
740.378	44.86
740.693	45.13
741.009	45.31
741.325	45.53
741.641	45.64
741.956	45.68
742.272	45.7
742.587	45.84
742.903	45.92
743.218	46.23
743.533	46.26
743.849	46.27
744.164	46.38
744.479	46.41
744.794	46.5
745.109	46.55
745.424	46.75
745.739	46.77
746.054	46.92
746.369	47.03
746.684	47.11
746.999	47.27
747.313	47.32
747.628	47.34
747.943	47.32
748.257	47.39
748.572	47.72
748.886	47.75
749.201	47.77
749.515	47.86
749.829	47.73
750.144	48.03
750.458	48.24
750.772	48.2
751.086	48.25
751.4	48.29
751.714	48.32
752.028	48.39
752.342	48.37
752.656	48.41
752.97	48.41
753.284	48.44
753.597	48.58
753.911	48.65
754.225	48.61
754.538	48.59
754.852	48.58
755.165	48.52
755.478	48.73
755.792	48.74
756.105	48.8
756.418	48.86
756.731	48.79
757.045	48.81
757.358	48.95
757.671	49.03
757.984	49.16
758.297	49.28
758.609	49.33
758.922	49.35
759.235	49.17
759.548	49.36
759.86	49.19
760.173	48.9
760.486	48.74
760.798	48.71
761.111	48.69
761.423	48.58
761.735	48.57
762.048	48.37
762.36	48.46
762.672	48.54
762.984	48.6
763.296	48.51
763.608	48.43
763.92	48.36
764.232	48.38
764.544	48.37
764.856	48.4
765.168	48.45
765.48	48.56
765.791	48.77
766.103	48.88
766.414	49.28
766.726	49.58
767.037	49.74
767.349	49.99
767.66	50.28
767.972	50.67
768.283	51.04
768.594	51.39
768.905	51.55
769.216	51.77
769.527	51.96
769.838	52.33
770.149	52.64
770.46	53.04
770.771	53.31
771.082	53.5
771.393	53.65
771.703	53.64
772.014	53.82
772.324	53.81
772.635	53.75
772.945	53.43
773.256	53.58
773.566	53.88
773.877	54.12
774.187	54.17
774.497	54.34
774.807	54.31
775.117	54.46
775.427	54.4
775.737	54.39
776.047	54.48
776.357	54.39
776.667	54.4
776.977	54.46
777.287	54.48
777.596	54.49
777.906	54.36
778.216	54.5
778.525	54.62
778.835	54.52
779.144	54.55
779.453	54.63
779.763	54.7
780.072	54.8
780.381	54.72
780.69	54.73
781	54.5
781.309	54.37
781.618	54.37
781.927	54.63
782.235	54.61
782.544	54.55
782.853	54.74
783.162	54.9
783.471	54.99
783.779	55.1
784.088	55.38
784.396	55.48
784.705	55.42
785.013	55.24
785.322	55.53
785.63	55.68
785.938	56.15
786.246	56.06
786.554	55.89
786.863	55.86
787.171	56.18
787.479	56.41
787.787	56.62
788.094	56.61
788.402	56.44
788.71	56.66
789.018	56.78
789.326	56.72
789.633	56.88
789.941	56.9
790.248	56.93
790.556	56.97
790.863	56.99
791.171	57.13
791.478	57.19
791.785	57.39
792.092	57.38
792.399	57.22
792.707	57.34
793.014	57.6
793.321	57.38
793.628	57.14
793.934	57.32
794.241	57.11
794.548	57.02
794.855	57.24
795.161	57.24
795.468	57.28
795.775	57.13
796.081	57.1
796.388	57.19
796.694	57.1
797	56.93
797.307	57.11
797.613	57.07
797.919	57.04
798.225	56.9
798.531	56.97
798.837	57
799.143	56.96
799.449	56.83
799.755	57.18
800.061	57.81
800.367	57.67
800.672	57.75
800.978	58.34
801.284	58.3
801.589	58.35
801.895	58.19
802.2	58.7
802.506	58.64
802.811	58.42
803.116	58.51
803.421	58.59
803.727	58.48
804.032	58.6
804.337	58.87
804.642	58.98
804.947	58.82
805.252	58.92
805.556	59.21
805.861	59.34
806.166	59.39
806.471	58.94
806.775	59.26
807.08	59.75
807.384	59.21
807.689	59.22
807.993	59.32
808.298	59.74
808.602	59.58
808.906	59.67
809.211	59.64
809.515	59.65
809.819	59.86
810.123	60.13
810.427	59.94
810.731	60.2
811.035	60.25
811.338	60.77
811.642	60.62
811.946	60.69
812.25	60.99
812.553	61.05
812.857	60.95
813.16	60.99
813.464	61.21
813.767	61.6
814.07	61.7
814.374	61.54
814.677	61.64
814.98	61.54
815.283	61.58
815.586	61.85
815.889	62.05
816.192	61.79
816.495	61.67
816.798	61.49
817.101	61.2
817.404	61.12
817.706	60.48
818.009	60.34
818.312	59.66
818.614	58.5
818.917	57.44
819.219	56.18
819.521	54.83
819.824	53.31
820.126	52.19
820.428	51.38
820.73	50.86
821.032	50.37
821.334	50
821.636	49.79
821.938	49.75
822.24	49.57
822.542	49.5
822.844	49.4
823.145	49.37
823.447	49.25
823.749	49.08
824.05	48.97
824.352	48.87
824.653	48.77
824.955	48.8
825.256	48.84
825.557	48.88
825.858	48.8
826.16	48.99
826.461	49.3
826.762	49.67
827.063	49.9
827.364	50.18
827.665	50.58
827.965	50.84
828.266	51.04
828.567	51.27
828.868	51.44
829.168	51.65
829.469	51.88
829.769	52.13
830.07	52.52
830.37	52.86
830.67	53.14
830.971	53.52
831.271	53.72
831.571	53.91
831.871	54.29
832.171	54.73
832.471	54.93
832.771	55.08
833.071	55.33
833.371	55.81
833.671	55.91
833.971	56.33
834.27	56.49
834.57	56.2
834.869	56.49
835.169	56.7
835.468	56.94
835.768	57.22
836.067	57.14
836.367	57.3
836.666	57.48
836.965	57.65
837.264	58.33
837.563	58.97
837.862	59.68
838.161	60.18
838.46	61.36
838.759	61.82
839.058	62.4
839.356	62.93
839.655	63.27
839.954	63.51
840.252	63.4
840.551	63.72
840.849	64.16
841.148	64.33
841.446	64.77
841.744	64.89
842.043	64.68
842.341	65.19
842.639	65
842.937	65.59
843.235	66.39
843.533	66.73
843.831	66.85
844.129	67.42
844.427	67.56
844.724	66.87
845.022	67.57
845.32	68.74
845.617	69.03
845.915	69.64
846.212	70.43
846.51	70.57
846.807	71.4
847.104	71.51
847.402	71.6
847.699	72.07
847.996	72.42
848.293	72.95
848.59	73.65
848.887	74.79
849.184	75.48
849.481	75.29
849.778	74.66
850.074	75.03
850.371	74.86
850.668	75.66
850.964	76.89
851.261	76.98
851.557	76.35
851.854	76.29
852.15	76.28
852.446	76.99
852.743	77.63
853.039	77.38
853.335	77.91
853.631	78.48
853.927	77.52
854.223	77.73
854.519	77.9
854.815	77.64
855.111	76.56
855.406	75.63
855.702	76.46
855.998	76.47
856.293	76.5
856.589	77.65
856.884	77.61
857.18	77.28
857.475	77.61
857.77	76.87
858.066	76.92
858.361	76.67
858.656	76.52
858.951	76.21
859.246	75.84
859.541	76.25
859.836	75.73
860.131	76.49
860.426	76.74
860.72	76.95
861.015	77.26
861.31	78.64
861.604	78.88
861.899	77.82
862.193	78.37
862.487	78.44
862.782	78.15
863.076	78.56
863.37	78.89
863.664	78.75
863.959	80.27
864.253	81.25
864.547	81.14
864.841	80.97
865.135	80.92
865.428	80.99
865.722	80.8
866.016	80.71
866.31	80.85
866.603	80.19
866.897	79.5
867.19	77.96
867.484	77.88
867.777	77.46
868.07	78.38
868.364	78.69
868.657	79.04
868.95	78.7
869.243	78.23
869.536	77.84
869.829	77.76
870.122	75.67
870.415	74.23
870.708	74.48
871	74.87
871.293	74.7
871.586	74.71
871.878	74.14
872.171	74.48
872.463	74.12
872.756	74.11
873.048	74.73
873.341	75.97
873.633	75.31
873.925	75.75
874.217	74.99
874.509	74.21
874.801	74.08
875.093	73.23
875.385	72.74
875.677	72.49
875.969	72.36
