Data from pcis_p_m4_p6_Reflection_5.txt Node
Date: Wed Jul 12 18:01:19 ART 2017
User: rodoncho
Spectrometer: USB2E3644
Trigger mode: 4
Integration Time (sec): 6.000000E-2
Scans to average: 10
Electric dark correction enabled: true
Nonlinearity correction enabled: false
Boxcar width: 10
XAxis mode: Wavelengths
Number of Pixels in Spectrum: 2048
>>>>>Begin Spectral Data<<<<<
178.315	226.84
178.696	101.43
179.076	61.28
179.457	33.78
179.838	10.18
180.218	-11.7
180.599	-62.26
180.979	0
181.36	-257.5
181.74	28.57
182.121	84.29
182.501	99.83
182.881	106.87
183.262	97.48
183.642	47.66
184.022	-218.42
184.402	218.75
184.783	180.6
185.163	183.53
185.543	147.76
185.923	122.33
186.303	113.96
186.683	108.35
187.063	97.34
187.443	90.89
187.823	87.92
188.203	89.17
188.583	87.18
188.963	96.73
189.343	103.65
189.723	104.31
190.102	109.09
190.482	108.14
190.862	110.83
191.242	112.13
191.621	115
192.001	115.34
192.38	115.1
192.76	111.05
193.14	106.87
193.519	105.02
193.898	106.2
194.278	104.65
194.657	105.28
195.037	108.9
195.416	110.35
195.795	111.56
196.175	111.69
196.554	116.02
196.933	115.67
197.312	112.18
197.692	109.91
198.071	108.82
198.45	108.66
198.829	107.37
199.208	106.89
199.587	103.71
199.966	104.41
200.345	104.43
200.724	103.61
201.103	103.29
201.482	103.18
201.86	102.31
202.239	101.43
202.618	100.02
202.997	99.37
203.375	99.83
203.754	98.85
204.133	98.68
204.511	96.2
204.89	95.46
205.269	96.12
205.647	96.39
206.026	95.26
206.404	95.77
206.782	96.48
207.161	97.73
207.539	101.71
207.918	101.78
208.296	101.58
208.674	102.93
209.052	105.18
209.431	106.24
209.809	105.77
210.187	106.98
210.565	107.27
210.943	107.09
211.321	107.49
211.699	109.52
212.077	110.35
212.455	112.79
212.833	114.15
213.211	113.39
213.589	113.46
213.967	114.23
214.345	113.24
214.722	113.7
215.1	112.67
215.478	110.42
215.855	108.91
216.233	108.9
216.611	110.04
216.988	109.6
217.366	109.57
217.743	110.17
218.121	110.49
218.498	110.66
218.876	111.25
219.253	111.6
219.631	110.45
220.008	109.74
220.385	107.67
220.762	106.38
221.14	107.37
221.517	108.18
221.894	108.24
222.271	110.26
222.648	111.39
223.025	112.72
223.402	113.28
223.78	114.75
224.157	114.51
224.533	112.67
224.91	112.67
225.287	113.24
225.664	114.21
226.041	114.43
226.418	114.22
226.795	113.11
227.171	112.3
227.548	112.61
227.925	113.91
228.301	116.23
228.678	117.37
229.055	116.8
229.431	116.55
229.808	115.63
230.184	113.94
230.561	112.32
230.937	112.1
231.313	112.65
231.69	113.33
232.066	114.08
232.442	113.96
232.819	113.52
233.195	113.6
233.571	112.5
233.947	113.69
234.323	115.86
234.699	116.57
235.075	115.21
235.451	115.62
235.827	115.71
236.203	115.19
236.579	116.11
236.955	118.65
237.331	120.49
237.707	123.06
238.083	126.94
238.459	131.5
238.834	138.24
239.21	143.1
239.586	146.91
239.961	151.97
240.337	156.71
240.713	161.27
241.088	161.68
241.464	165.11
241.839	169.56
242.215	173.56
242.59	187.01
242.965	217.97
243.341	275.55
243.716	367.82
244.091	556.69
244.467	861.25
244.842	1434.51
245.217	3314.64
245.592	8334.82
245.967	-65907.14
246.343	-46045
246.718	6502.11
247.093	8227.68
247.468	92450
247.843	-10770.93
248.218	-2256.34
248.593	-1146.28
248.967	-724.84
249.342	-588.07
249.717	-563.49
250.092	-559.99
250.467	-605.05
250.841	-865.14
251.216	-3507.14
251.591	2150.69
251.965	816.35
252.34	585.42
252.714	522.89
253.089	469.01
253.463	459.48
253.838	480.36
254.212	499.85
254.587	579.78
254.961	785.38
255.335	1631.27
255.71	-2513.21
256.084	-554.51
256.458	-296.02
256.832	-215.44
257.206	-182.17
257.581	-166.12
257.955	-155.95
258.329	-145.81
258.703	-135.77
259.077	-128.08
259.451	-123.56
259.825	-118.68
260.199	-115.8
260.572	-112.18
260.946	-107.7
261.32	-104.42
261.694	-101.28
262.068	-99.83
262.441	-97.49
262.815	-97.42
263.189	-99.08
263.562	-106.32
263.936	-121.9
264.309	-147.79
264.683	-173.95
265.056	-191.47
265.43	-199.25
265.803	-193.62
266.176	-189.91
266.55	-188.13
266.923	-182.04
267.296	-170.01
267.67	-156.65
268.043	-142.54
268.416	-132.61
268.789	-119.39
269.162	-106.97
269.535	-99.97
269.908	-93.07
270.281	-89.64
270.654	-88.96
271.027	-91.15
271.4	-91.53
271.773	-91.26
272.146	-90.46
272.519	-87.61
272.891	-85.22
273.264	-84.34
273.637	-84.52
274.01	-84.92
274.382	-84.43
274.755	-82.54
275.127	-83.66
275.5	-85.99
275.872	-86.08
276.245	-85.87
276.617	-88.01
276.99	-93.42
277.362	-96.11
277.734	-98.71
278.107	-98.06
278.479	-93.67
278.851	-87.46
279.223	-83.34
279.596	-81.54
279.968	-80.1
280.34	-80.09
280.712	-78.64
281.084	-73.46
281.456	-67.5
281.828	-62.33
282.2	-57.48
282.572	-54.65
282.944	-52.16
283.315	-50.18
283.687	-49.49
284.059	-48.99
284.431	-48.31
284.802	-47.04
285.174	-45.4
285.546	-43.55
285.917	-42.5
286.289	-41.64
286.66	-40.97
287.032	-40.99
287.403	-40.51
287.775	-39.81
288.146	-39.37
288.518	-38.71
288.889	-39.25
289.26	-40.59
289.632	-41.56
290.003	-43.2
290.374	-44.58
290.745	-44.68
291.116	-44.77
291.487	-43.77
291.858	-42.64
292.229	-42.05
292.6	-40.74
292.971	-39.56
293.342	-38.02
293.713	-36.33
294.084	-35.19
294.455	-34.79
294.826	-33.44
295.196	-32.9
295.567	-32.42
295.938	-31.93
296.308	-32.12
296.679	-31.2
297.05	-30.21
297.42	-29.69
297.791	-28.53
298.161	-27.62
298.532	-27.16
298.902	-26.21
299.272	-25.72
299.643	-25.01
300.013	-24.23
300.383	-23.68
300.754	-23.59
301.124	-23.87
301.494	-23.88
301.864	-24.15
302.234	-24.23
302.604	-24.61
302.974	-24.43
303.344	-24.48
303.714	-24.49
304.084	-23.94
304.454	-23.59
304.824	-23.08
305.194	-22.18
305.563	-21.43
305.933	-20.52
306.303	-19.29
306.673	-18.87
307.042	-18.1
307.412	-17.65
307.781	-16.54
308.151	-15.83
308.521	-15.3
308.89	-14.79
309.259	-14.56
309.629	-14.12
309.998	-13.69
310.368	-13.55
310.737	-13.58
311.106	-13.28
311.475	-12.56
311.845	-12.28
312.214	-12.21
312.583	-12.05
312.952	-11.98
313.321	-12.13
313.69	-12.11
314.059	-12.55
314.428	-12.51
314.797	-13.07
315.166	-13.52
315.535	-14.68
315.904	-15.39
316.272	-15.89
316.641	-16.27
317.01	-16.5
317.379	-16.75
317.747	-16.87
318.116	-16.53
318.484	-16.09
318.853	-15.85
319.221	-15.88
319.59	-15.61
319.958	-15.17
320.327	-14.71
320.695	-14.51
321.063	-14.11
321.432	-13.74
321.8	-13.4
322.168	-12.9
322.536	-12.06
322.905	-11.19
323.273	-10.29
323.641	-9.8
324.009	-9.8
324.377	-9.41
324.745	-8.98
325.113	-8.58
325.481	-7.89
325.849	-7.25
326.216	-6.68
326.584	-6.01
326.952	-5.62
327.32	-5.14
327.687	-4.9
328.055	-4.63
328.423	-4.31
328.79	-4.3
329.158	-4.23
329.525	-3.76
329.893	-3.53
330.26	-3.45
330.628	-3.52
330.995	-3.23
331.362	-2.71
331.73	-1.93
332.097	-1.56
332.464	-1.32
332.831	-1.18
333.199	-0.94
333.566	-0.94
333.933	-0.98
334.3	-1.14
334.667	-0.91
335.034	-0.81
335.401	-0.57
335.768	-0.52
336.135	-0.2
336.502	0.29
336.868	0.68
337.235	0.92
337.602	1.33
337.969	1.81
338.335	2.32
338.702	2.56
339.069	2.74
339.435	3.05
339.802	3.33
340.168	3.67
340.535	4.11
340.901	4.15
341.267	4.45
341.634	4.83
342	5.08
342.366	5.28
342.733	5.42
343.099	5.59
343.465	5.84
343.831	6.03
344.197	6.16
344.563	6.28
344.929	6.38
345.295	6.43
345.661	6.47
346.027	6.49
346.393	6.51
346.759	6.46
347.125	6.45
347.491	6.52
347.856	6.55
348.222	6.5
348.588	6.64
348.953	6.66
349.319	6.65
349.684	6.77
350.05	6.85
350.415	7.06
350.781	7.2
351.146	7.48
351.512	7.54
351.877	7.64
352.242	7.73
352.608	7.79
352.973	7.87
353.338	7.98
353.703	8.15
354.068	8.28
354.433	8.48
354.798	8.75
355.164	8.83
355.528	8.89
355.893	9.02
356.258	9.15
356.623	9.29
356.988	9.46
357.353	9.68
357.718	9.83
358.082	9.92
358.447	10.02
358.812	9.96
359.176	10.02
359.541	10.06
359.905	10.18
360.27	10.29
360.634	10.38
360.999	10.43
361.363	10.52
361.728	10.64
362.092	10.66
362.456	10.58
362.821	10.67
363.185	10.73
363.549	10.87
363.913	10.95
364.277	10.99
364.641	11.07
365.005	11.05
365.369	11.07
365.733	11.15
366.097	11.23
366.461	11.25
366.825	11.4
367.189	11.56
367.553	11.67
367.916	11.81
368.28	11.91
368.644	12.08
369.007	12.18
369.371	12.25
369.734	12.33
370.098	12.51
370.461	12.63
370.825	12.81
371.188	12.94
371.552	13.11
371.915	13.21
372.278	13.31
372.642	13.48
373.005	13.56
373.368	13.68
373.731	13.74
374.094	13.87
374.457	13.87
374.82	13.93
375.183	13.97
375.546	14.02
375.909	14.05
376.272	14.06
376.635	14.07
376.998	14.13
377.361	14.23
377.723	14.27
378.086	14.29
378.449	14.32
378.811	14.36
379.174	14.33
379.537	14.41
379.899	14.51
380.262	14.55
380.624	14.6
380.987	14.61
381.349	14.68
381.711	14.73
382.074	14.78
382.436	14.83
382.798	14.83
383.16	14.84
383.522	14.87
383.884	14.93
384.247	15.04
384.609	15.07
384.971	15.08
385.333	15.08
385.695	15.1
386.056	15.15
386.418	15.14
386.78	15.19
387.142	15.17
387.504	15.13
387.865	15.12
388.227	15.15
388.589	15.22
388.95	15.19
389.312	15.13
389.673	15.14
390.035	15.06
390.396	15.09
390.758	15.09
391.119	15.11
391.48	15.09
391.842	15.04
392.203	15.06
392.564	15.05
392.925	15.08
393.286	15.11
393.648	15.08
394.009	15.06
394.37	15.03
394.731	15.06
395.092	15.08
395.452	15.05
395.813	15.04
396.174	15
396.535	15.05
396.896	15.09
397.257	15.1
397.617	15.16
397.978	15.15
398.338	15.16
398.699	15.15
399.06	15.15
399.42	15.13
399.781	15.1
400.141	15.08
400.501	15.02
400.862	15.02
401.222	15.04
401.582	15.04
401.943	15.07
402.303	15.06
402.663	15.03
403.023	15.06
403.383	15.06
403.743	15.05
404.103	15.02
404.463	15.02
404.823	15
405.183	15
405.543	15.01
405.903	15.02
406.262	15
406.622	14.99
406.982	14.97
407.342	14.95
407.701	14.95
408.061	14.94
408.42	14.88
408.78	14.83
409.139	14.8
409.499	14.72
409.858	14.68
410.217	14.68
410.577	14.65
410.936	14.62
411.295	14.57
411.655	14.55
412.014	14.51
412.373	14.46
412.732	14.36
413.091	14.26
413.45	14.18
413.809	14.14
414.168	14.06
414.527	14
414.886	13.89
415.245	13.8
415.603	13.73
415.962	13.62
416.321	13.55
416.679	13.47
417.038	13.4
417.397	13.28
417.755	13.17
418.114	13.09
418.472	12.99
418.831	12.93
419.189	12.87
419.547	12.79
419.906	12.72
420.264	12.66
420.622	12.62
420.981	12.56
421.339	12.5
421.697	12.45
422.055	12.4
422.413	12.38
422.771	12.35
423.129	12.32
423.487	12.31
423.845	12.28
424.203	12.24
424.56	12.23
424.918	12.23
425.276	12.22
425.634	12.21
425.991	12.22
426.349	12.22
426.707	12.2
427.064	12.2
427.422	12.21
427.779	12.21
428.137	12.2
428.494	12.2
428.851	12.18
429.209	12.14
429.566	12.13
429.923	12.07
430.28	12.03
430.637	11.97
430.995	11.93
431.352	11.89
431.709	11.87
432.066	11.85
432.423	11.84
432.78	11.8
433.137	11.76
433.493	11.72
433.85	11.67
434.207	11.62
434.564	11.57
434.92	11.52
435.277	11.49
435.634	11.43
435.99	11.36
436.347	11.31
436.703	11.28
437.06	11.21
437.416	11.2
437.773	11.16
438.129	11.13
438.485	11.12
438.841	11.1
439.198	11.08
439.554	11.06
439.91	11.03
440.266	10.99
440.622	10.98
440.978	10.93
441.334	10.89
441.69	10.87
442.046	10.83
442.402	10.76
442.758	10.7
443.113	10.65
443.469	10.61
443.825	10.59
444.181	10.56
444.536	10.55
444.892	10.52
445.247	10.5
445.603	10.49
445.958	10.46
446.314	10.45
446.669	10.43
447.025	10.41
447.38	10.39
447.735	10.38
448.09	10.35
448.446	10.34
448.801	10.32
449.156	10.31
449.511	10.3
449.866	10.33
450.221	10.36
450.576	10.36
450.931	10.35
451.286	10.32
451.641	10.32
451.995	10.28
452.35	10.29
452.705	10.28
453.06	10.27
453.414	10.27
453.769	10.24
454.123	10.22
454.478	10.2
454.832	10.16
455.187	10.12
455.541	10.09
455.896	10.02
456.25	9.97
456.604	9.91
456.958	9.87
457.313	9.85
457.667	9.81
458.021	9.8
458.375	9.82
458.729	9.82
459.083	9.82
459.437	9.83
459.791	9.81
460.145	9.79
460.499	9.78
460.852	9.78
461.206	9.77
461.56	9.77
461.914	9.77
462.267	9.77
462.621	9.78
462.974	9.79
463.328	9.82
463.681	9.86
464.035	9.88
464.388	9.91
464.742	9.92
465.095	9.94
465.448	9.95
465.801	9.94
466.155	9.95
466.508	9.95
466.861	9.92
467.214	9.91
467.567	9.92
467.92	9.91
468.273	9.89
468.626	9.88
468.979	9.86
469.332	9.82
469.684	9.82
470.037	9.81
470.39	9.81
470.743	9.82
471.095	9.8
471.448	9.82
471.8	9.83
472.153	9.82
472.505	9.8
472.858	9.8
473.21	9.77
473.562	9.74
473.915	9.73
474.267	9.72
474.619	9.72
474.971	9.7
475.324	9.68
475.676	9.68
476.028	9.67
476.38	9.66
476.732	9.67
477.084	9.66
477.436	9.65
477.787	9.62
478.139	9.59
478.491	9.57
478.843	9.52
479.195	9.46
479.546	9.39
479.898	9.3
480.249	9.2
480.601	9.13
480.952	9.1
481.304	9.07
481.655	9.05
482.007	9.04
482.358	9.02
482.709	9.01
483.061	8.99
483.412	8.98
483.763	8.97
484.114	8.96
484.465	8.94
484.816	8.93
485.167	8.92
485.518	8.92
485.869	8.91
486.22	8.92
486.571	8.93
486.922	8.94
487.272	8.96
487.623	8.99
487.974	9.01
488.324	9.01
488.675	9.02
489.025	9.04
489.376	9.04
489.726	9.06
490.077	9.08
490.427	9.1
490.778	9.12
491.128	9.16
491.478	9.19
491.828	9.22
492.179	9.26
492.529	9.29
492.879	9.32
493.229	9.35
493.579	9.37
493.929	9.38
494.279	9.39
494.629	9.43
494.979	9.48
495.328	9.52
495.678	9.59
496.028	9.65
496.378	9.67
496.727	9.7
497.077	9.74
497.426	9.76
497.776	9.79
498.125	9.8
498.475	9.8
498.824	9.83
499.174	9.83
499.523	9.85
499.872	9.87
500.221	9.88
500.571	9.91
500.92	9.94
501.269	9.96
501.618	9.97
501.967	9.98
502.316	9.98
502.665	9.99
503.014	10
503.363	10.02
503.711	10.05
504.06	10.06
504.409	10.05
504.758	10.04
505.106	10.04
505.455	10.05
505.803	10.06
506.152	10.03
506.5	10.05
506.849	10.07
507.197	10.06
507.546	10.07
507.894	10.07
508.242	10.08
508.59	10.1
508.939	10.1
509.287	10.13
509.635	10.16
509.983	10.17
510.331	10.17
510.679	10.19
511.027	10.2
511.375	10.23
511.723	10.27
512.07	10.28
512.418	10.31
512.766	10.33
513.114	10.36
513.461	10.4
513.809	10.43
514.156	10.43
514.504	10.47
514.851	10.49
515.199	10.52
515.546	10.55
515.893	10.55
516.241	10.59
516.588	10.6
516.935	10.61
517.282	10.63
517.63	10.65
517.977	10.68
518.324	10.72
518.671	10.74
519.018	10.77
519.365	10.8
519.711	10.81
520.058	10.83
520.405	10.84
520.752	10.87
521.099	10.89
521.445	10.94
521.792	10.95
522.138	11
522.485	11.01
522.832	11.03
523.178	11.08
523.524	11.1
523.871	11.12
524.217	11.14
524.563	11.13
524.91	11.12
525.256	11.08
525.602	11.07
525.948	11.05
526.294	11.04
526.64	11.05
526.986	11.07
527.332	11.08
527.678	11.09
528.024	11.1
528.37	11.13
528.716	11.13
529.061	11.14
529.407	11.15
529.753	11.16
530.098	11.17
530.444	11.17
530.789	11.19
531.135	11.21
531.48	11.23
531.826	11.27
532.171	11.32
532.516	11.38
532.862	11.43
533.207	11.49
533.552	11.54
533.897	11.58
534.242	11.61
534.587	11.65
534.932	11.69
535.277	11.71
535.622	11.73
535.967	11.78
536.312	11.82
536.657	11.87
537.001	11.94
537.346	12
537.691	12.05
538.035	12.1
538.38	12.14
538.724	12.18
539.069	12.22
539.413	12.24
539.758	12.28
540.102	12.32
540.446	12.36
540.791	12.4
541.135	12.45
541.479	12.5
541.823	12.53
542.167	12.55
542.512	12.58
542.856	12.61
543.2	12.64
543.543	12.68
543.887	12.71
544.231	12.75
544.575	12.81
544.919	12.89
545.262	12.96
545.606	13.05
545.95	13.13
546.293	13.2
546.637	13.28
546.98	13.36
547.324	13.42
547.667	13.5
548.011	13.56
548.354	13.62
548.697	13.68
549.04	13.76
549.384	13.85
549.727	13.94
550.07	14.04
550.413	14.12
550.756	14.18
551.099	14.28
551.442	14.34
551.785	14.44
552.128	14.5
552.47	14.59
552.813	14.64
553.156	14.7
553.499	14.79
553.841	14.86
554.184	14.93
554.526	15.01
554.869	15.07
555.211	15.17
555.554	15.23
555.896	15.31
556.238	15.41
556.581	15.5
556.923	15.58
557.265	15.68
557.607	15.79
557.949	15.92
558.291	16.02
558.633	16.15
558.975	16.23
559.317	16.35
559.659	16.46
560.001	16.59
560.343	16.71
560.685	16.82
561.026	16.94
561.368	17.04
561.71	17.16
562.051	17.33
562.393	17.49
562.734	17.64
563.076	17.79
563.417	17.93
563.759	18.06
564.1	18.2
564.441	18.34
564.782	18.49
565.124	18.61
565.465	18.75
565.806	18.89
566.147	19.05
566.488	19.2
566.829	19.31
567.17	19.43
567.511	19.58
567.851	19.75
568.192	19.93
568.533	20.11
568.874	20.26
569.214	20.39
569.555	20.54
569.895	20.69
570.236	20.85
570.576	21.03
570.917	21.23
571.257	21.39
571.598	21.55
571.938	21.69
572.278	21.86
572.618	22.04
572.959	22.22
573.299	22.35
573.639	22.51
573.979	22.7
574.319	22.87
574.659	23.02
574.999	23.16
575.339	23.31
575.678	23.49
576.018	23.67
576.358	23.86
576.698	24.04
577.037	24.2
577.377	24.4
577.716	24.58
578.056	24.73
578.395	24.94
578.735	25.13
579.074	25.32
579.413	25.51
579.753	25.68
580.092	25.89
580.431	26.09
580.77	26.25
581.109	26.45
581.448	26.64
581.787	26.8
582.126	26.96
582.465	27.14
582.804	27.3
583.143	27.5
583.482	27.66
583.82	27.8
584.159	28
584.498	28.12
584.836	28.27
585.175	28.44
585.514	28.58
585.852	28.76
586.19	28.96
586.529	29.13
586.867	29.29
587.205	29.41
587.544	29.57
587.882	29.73
588.22	29.9
588.558	30.03
588.896	30.19
589.234	30.34
589.572	30.46
589.91	30.59
590.248	30.66
590.586	30.79
590.924	30.97
591.262	31.08
591.599	31.26
591.937	31.39
592.275	31.5
592.612	31.6
592.95	31.73
593.287	31.89
593.625	32.07
593.962	32.24
594.299	32.38
594.637	32.5
594.974	32.63
595.311	32.71
595.648	32.84
595.985	32.94
596.322	33.05
596.659	33.15
596.996	33.24
597.333	33.36
597.67	33.45
598.007	33.52
598.344	33.57
598.681	33.64
599.017	33.68
599.354	33.79
599.691	33.91
600.027	34.01
600.364	34.09
600.7	34.17
601.037	34.23
601.373	34.36
601.71	34.46
602.046	34.53
602.382	34.65
602.718	34.74
603.054	34.79
603.391	34.83
603.727	34.9
604.063	34.97
604.399	35.02
604.735	35.11
605.071	35.21
605.406	35.29
605.742	35.33
606.078	35.43
606.414	35.49
606.749	35.56
607.085	35.6
607.421	35.66
607.756	35.73
608.092	35.8
608.427	35.8
608.762	35.84
609.098	35.87
609.433	35.86
609.768	35.87
610.104	35.92
610.439	35.98
610.774	36
611.109	36
611.444	36.08
611.779	36.04
612.114	36
612.449	36.01
612.784	36.02
613.118	36.05
613.453	36.07
613.788	36.09
614.123	36.1
614.457	36.08
614.792	36.07
615.126	36.07
615.461	36.12
615.795	36.18
616.13	36.24
616.464	36.21
616.798	36.23
617.132	36.24
617.467	36.23
617.801	36.26
618.135	36.31
618.469	36.28
618.803	36.27
619.137	36.34
619.471	36.38
619.805	36.41
620.139	36.43
620.472	36.41
620.806	36.36
621.14	36.37
621.473	36.36
621.807	36.38
622.141	36.42
622.474	36.39
622.808	36.38
623.141	36.4
623.474	36.51
623.808	36.55
624.141	36.6
624.474	36.61
624.807	36.62
625.141	36.66
625.474	36.68
625.807	36.71
626.14	36.69
626.473	36.71
626.806	36.77
627.138	36.82
627.471	36.83
627.804	36.87
628.137	36.9
628.469	36.93
628.802	36.9
629.135	36.87
629.467	36.86
629.8	36.87
630.132	36.91
630.465	36.88
630.797	36.85
631.129	36.88
631.461	36.86
631.794	36.88
632.126	36.81
632.458	36.83
632.79	36.84
633.122	36.88
633.454	36.92
633.786	36.89
634.118	36.82
634.45	36.87
634.781	36.88
635.113	36.9
635.445	36.94
635.777	37.05
636.108	37.06
636.44	37.09
636.771	37.09
637.103	37.09
637.434	37.06
637.765	37.08
638.097	37
638.428	37.01
638.759	36.97
639.09	37.02
639.422	37.08
639.753	37.1
640.084	37.05
640.415	37.02
640.746	37.05
641.077	37.04
641.407	37.03
641.738	37.01
642.069	36.95
642.4	36.91
642.73	36.86
643.061	36.85
643.392	36.88
643.722	36.89
644.053	36.81
644.383	36.81
644.713	36.84
645.044	36.83
645.374	36.88
645.704	36.86
646.034	36.86
646.365	36.79
646.695	36.79
647.025	36.83
647.355	36.86
647.685	36.79
648.015	36.82
648.344	36.79
648.674	36.85
649.004	36.92
649.334	36.99
649.663	37.01
649.993	37.04
650.323	37.02
650.652	36.99
650.982	37.06
651.311	37.1
651.64	37.02
651.97	37.13
652.299	37.13
652.628	37.1
652.958	37.1
653.287	37.14
653.616	37.11
653.945	37.15
654.274	37.17
654.603	37.23
654.932	37.23
655.261	37.27
655.589	37.21
655.918	37.24
656.247	37.3
656.576	37.37
656.904	37.44
657.233	37.52
657.561	37.55
657.89	37.51
658.218	37.53
658.547	37.6
658.875	37.61
659.203	37.62
659.532	37.74
659.86	37.75
660.188	37.72
660.516	37.71
660.844	37.69
661.172	37.65
661.5	37.71
661.828	37.72
662.156	37.69
662.484	37.67
662.811	37.61
663.139	37.53
663.467	37.42
663.794	37.38
664.122	37.35
664.45	37.33
664.777	37.34
665.104	37.39
665.432	37.31
665.759	37.24
666.086	37.26
666.414	37.16
666.741	37.15
667.068	37.15
667.395	37.21
667.722	37.21
668.049	37.28
668.376	37.24
668.703	37.28
669.03	37.34
669.357	37.38
669.683	37.41
670.01	37.39
670.337	37.41
670.663	37.42
670.99	37.32
671.317	37.29
671.643	37.34
671.969	37.26
672.296	37.31
672.622	37.29
672.948	37.26
673.275	37.24
673.601	37.24
673.927	37.31
674.253	37.35
674.579	37.33
674.905	37.28
675.231	37.26
675.557	37.23
675.883	37.21
676.209	37.28
676.534	37.23
676.86	37.27
677.186	37.29
677.511	37.27
677.837	37.39
678.162	37.47
678.488	37.41
678.813	37.5
679.139	37.51
679.464	37.57
679.789	37.64
680.114	37.68
680.44	37.66
680.765	37.6
681.09	37.55
681.415	37.51
681.74	37.51
682.065	37.51
682.39	37.47
682.714	37.46
683.039	37.41
683.364	37.46
683.689	37.42
684.013	37.39
684.338	37.42
684.662	37.34
684.987	37.3
685.311	37.33
685.636	37.23
685.96	37.18
686.284	37.09
686.608	37.02
686.933	36.96
687.257	36.94
687.581	36.99
687.905	36.98
688.229	37.07
688.553	37.09
688.877	37.1
689.201	37.08
689.524	37.09
689.848	37.11
690.172	37.08
690.496	37.08
690.819	37.05
691.143	37.03
691.466	37.02
691.79	36.99
692.113	37.03
692.436	37.07
692.76	37.11
693.083	37.14
693.406	37.05
693.729	37.15
694.053	37.23
694.376	37.16
694.699	37.18
695.022	37.29
695.344	37.35
695.667	37.47
695.99	37.59
696.313	37.69
696.636	37.76
696.958	37.89
697.281	37.96
697.604	38
697.926	37.9
698.249	37.98
698.571	37.95
698.893	37.86
699.216	37.82
699.538	37.75
699.86	37.75
700.182	37.78
700.504	37.77
700.827	37.77
701.149	37.8
701.471	37.76
701.793	37.65
702.114	37.51
702.436	37.34
702.758	37.23
703.08	37.08
703.401	36.89
703.723	36.69
704.045	36.58
704.366	36.5
704.688	36.65
705.009	36.51
705.331	36.56
705.652	36.59
705.973	36.67
706.294	36.75
706.616	36.85
706.937	36.97
707.258	36.97
707.579	36.96
707.9	36.97
708.221	37.1
708.542	37.05
708.863	37.17
709.183	37.12
709.504	37.1
709.825	37.17
710.145	37.33
710.466	37.31
710.787	37.28
711.107	37.3
711.427	37.21
711.748	37.32
712.068	37.32
712.388	37.34
712.709	37.43
713.029	37.4
713.349	37.26
713.669	37.18
713.989	37.21
714.309	37.18
714.629	37.1
714.949	37.03
715.269	37.07
715.589	37.04
715.908	37.16
716.228	37.12
716.548	37.03
716.867	36.98
717.187	36.95
717.506	37
717.826	37.05
718.145	37.02
718.465	37.02
718.784	37.11
719.103	36.99
719.422	36.84
719.741	36.86
720.061	37.03
720.38	37.22
720.699	37.19
721.018	37.29
721.336	37.49
721.655	37.62
721.974	37.56
722.293	37.66
722.612	37.67
722.93	37.83
723.249	38.07
723.567	38.06
723.886	38.3
724.204	38.31
724.523	38.46
724.841	38.67
725.159	38.72
725.477	38.71
725.796	38.94
726.114	39.16
726.432	39.28
726.75	39.43
727.068	39.34
727.386	39.51
727.704	39.52
728.022	39.54
728.339	39.47
728.657	39.6
728.975	39.65
729.292	39.62
729.61	39.69
729.928	39.64
730.245	39.67
730.562	39.7
730.88	39.88
731.197	39.88
731.514	39.87
731.832	39.99
732.149	40.18
732.466	40.17
732.783	40.09
733.1	40.18
733.417	40.2
733.734	40.27
734.051	40.34
734.368	40.46
734.684	40.61
735.001	40.78
735.318	40.83
735.634	40.74
735.951	40.91
736.268	41.05
736.584	41.29
736.9	41.47
737.217	41.48
737.533	41.38
737.849	41.49
738.166	41.66
738.482	41.63
738.798	41.69
739.114	41.89
739.43	41.95
739.746	42.07
740.062	42.02
740.378	42.16
740.693	42.16
741.009	42.29
741.325	42.34
741.641	42.43
741.956	42.72
742.272	43
742.587	43.17
742.903	43.29
743.218	43.27
743.533	43.33
743.849	43.54
744.164	43.78
744.479	43.82
744.794	43.79
745.109	43.89
745.424	43.68
745.739	43.68
746.054	43.84
746.369	43.91
746.684	44.09
746.999	44.25
747.313	44.29
747.628	44.19
747.943	44.16
748.257	44.28
748.572	44.22
748.886	44.31
749.201	44.41
749.515	44.35
749.829	44.43
750.144	44.46
750.458	44.47
750.772	44.59
751.086	44.83
751.4	44.94
751.714	45.07
752.028	45.31
752.342	45.37
752.656	45.46
752.97	45.28
753.284	45.26
753.597	45.11
753.911	45.07
754.225	45.17
754.538	45.29
754.852	45.22
755.165	45.29
755.478	45.29
755.792	45.11
756.105	45.24
756.418	45.18
756.731	45.29
757.045	45.39
757.358	45.41
757.671	45.4
757.984	45.31
758.297	45.3
758.609	45.38
758.922	45.49
759.235	45.37
759.548	45.45
759.86	45.51
760.173	45.46
760.486	45.42
760.798	45.43
761.111	45.31
761.423	45.29
761.735	45.19
762.048	45.19
762.36	45.28
762.672	45.38
762.984	45.59
763.296	45.64
763.608	45.74
763.92	45.78
764.232	45.94
764.544	46.16
764.856	46.21
765.168	46.29
765.48	46.38
765.791	46.65
766.103	46.93
766.414	47.06
766.726	47.43
767.037	47.71
767.349	47.9
767.66	48.19
767.972	48.5
768.283	48.98
768.594	49.41
768.905	49.67
769.216	49.64
769.527	49.56
769.838	49.61
770.149	49.55
770.46	49.59
770.771	49.5
771.082	49.63
771.393	49.76
771.703	49.87
772.014	49.82
772.324	49.85
772.635	49.89
772.945	49.84
773.256	49.77
773.566	50.15
773.877	50.42
774.187	50.82
774.497	50.76
774.807	50.57
775.117	50.28
775.427	50.29
775.737	50.42
776.047	50.65
776.357	50.91
776.667	51.34
776.977	51.59
777.287	51.67
777.596	51.67
777.906	51.69
778.216	51.43
778.525	51.25
778.835	51.16
779.144	51.06
779.453	51.1
779.763	51.39
780.072	51.4
780.381	51.21
780.69	51.17
781	51.26
781.309	51.37
781.618	51.58
781.927	51.75
782.235	51.98
782.544	52.15
782.853	52.06
783.162	51.8
783.471	51.76
783.779	51.72
784.088	51.74
784.396	51.76
784.705	52.19
785.013	52.36
785.322	52.41
785.63	52.37
785.938	52.56
786.246	52.18
786.554	52.07
786.863	52.32
787.171	52.16
787.479	52.31
787.787	52.54
788.094	52.57
788.402	52.64
788.71	52.63
789.018	52.68
789.326	52.62
789.633	52.87
789.941	53.16
790.248	53.08
790.556	53.04
790.863	53.3
791.171	53.21
791.478	53.48
791.785	53.64
792.092	54
792.399	53.89
792.707	53.96
793.014	53.88
793.321	53.78
793.628	53.73
793.934	53.76
794.241	53.54
794.548	53.34
794.855	53.49
795.161	53.43
795.468	53.45
795.775	53.81
796.081	53.71
796.388	53.6
796.694	53.87
797	53.95
797.307	54.03
797.613	54.11
797.919	53.98
798.225	54
798.531	53.9
798.837	54.24
799.143	54.32
799.449	54.48
799.755	54.63
800.061	54.96
800.367	55.03
800.672	55.33
800.978	55.69
801.284	55.52
801.589	55.53
801.895	55.57
802.2	55.52
802.506	55.33
802.811	55.11
803.116	55.2
803.421	55.22
803.727	54.84
804.032	54.78
804.337	55.15
804.642	55.12
804.947	55.37
805.252	55.22
805.556	55.53
805.861	55.64
806.166	55.73
806.471	55.58
806.775	55.49
807.08	55.56
807.384	55.92
807.689	56.25
807.993	56.09
808.298	55.86
808.602	55.77
808.906	56.01
809.211	56.21
809.515	56.3
809.819	56.41
810.123	56.69
810.427	56.87
810.731	56.73
811.035	57.13
811.338	56.77
811.642	56.99
811.946	57.06
812.25	57.09
812.553	57.1
812.857	57.07
813.16	57.27
813.464	56.87
813.767	56.6
814.07	56.33
814.374	56.62
814.677	56.81
814.98	56.67
815.283	56.79
815.586	56.7
815.889	56.68
816.192	56.6
816.495	56.5
816.798	56.32
817.101	56.2
817.404	55.65
817.706	55.44
818.009	54.78
818.312	53.88
818.614	53.03
818.917	51.56
819.219	50.34
819.521	49.04
819.824	47.81
820.126	46.89
820.428	46.3
820.73	45.76
821.032	45.35
821.334	45.06
821.636	44.87
821.938	44.93
822.24	44.8
822.542	44.69
822.844	44.73
823.145	44.77
823.447	44.77
823.749	44.81
824.05	44.75
824.352	44.79
824.653	44.77
824.955	44.78
825.256	44.85
825.557	45
825.858	45.22
826.16	45.58
826.461	45.9
826.762	46.17
827.063	46.56
827.364	47.06
827.665	47.54
827.965	47.92
828.266	47.98
828.567	48.42
828.868	48.75
829.168	48.9
829.469	48.97
829.769	49.02
830.07	48.96
830.37	49.14
830.67	49.32
830.971	49.81
831.271	49.97
831.571	50.11
831.871	50.05
832.171	50.23
832.471	50.45
832.771	50.7
833.071	50.98
833.371	51.14
833.671	51.17
833.971	51.33
834.27	51.25
834.57	51.28
834.869	51.1
835.169	51.18
835.468	51.07
835.768	51.16
836.067	51.47
836.367	51.76
836.666	51.99
836.965	52.29
837.264	52.7
837.563	53.3
837.862	54.46
838.161	55.66
838.46	56.19
838.759	56.87
839.058	57.43
839.356	57.76
839.655	58.34
839.954	58.78
840.252	58.92
840.551	59.9
840.849	60.49
841.148	60.96
841.446	61.2
841.744	61.82
842.043	62.35
842.341	62.4
842.639	62.68
842.937	63.25
843.235	63.79
843.533	64.13
843.831	64.75
844.129	65.61
844.427	65.82
844.724	66.47
845.022	67.2
845.32	67.71
845.617	68.88
845.915	70.23
846.212	71.1
846.51	71.92
846.807	71.44
847.104	71.33
847.402	71.51
847.699	71.79
847.996	72.08
848.293	71.46
848.59	70.27
848.887	70.04
849.184	70.06
849.481	70.45
849.778	70.14
850.074	70.22
850.371	69.49
850.668	69.9
850.964	70.15
851.261	70.23
851.557	70.09
851.854	69.93
852.15	68.87
852.446	68.75
852.743	68.63
853.039	68.45
853.335	69.32
853.631	69.02
853.927	68.56
854.223	68.02
854.519	68.28
854.815	68.97
855.111	69.11
855.406	69.35
855.702	68.74
855.998	69.09
856.293	69
856.589	69.59
856.884	69.4
857.18	69.58
857.475	68.82
857.77	69.1
858.066	69.51
858.361	70.19
858.656	70.31
858.951	70.48
859.246	71.42
859.541	71.6
859.836	71.21
860.131	71.21
860.426	71.93
860.72	72.62
861.015	73.19
861.31	73.46
861.604	73.71
861.899	73.05
862.193	71.88
862.487	72.05
862.782	71.7
863.076	71.05
863.37	70.29
863.664	70.78
863.959	70.67
864.253	70.92
864.547	70.49
864.841	70.42
865.135	70.66
865.428	70.4
865.722	69.5
866.016	71.32
866.31	71.88
866.603	71.64
866.897	70.73
867.19	70.98
867.484	70.96
867.777	70.23
868.07	71.36
868.364	73.2
868.657	73.18
868.95	73.11
869.243	74.84
869.536	76.03
869.829	75.97
870.122	76.71
870.415	76.57
870.708	77.27
871	77.05
871.293	77.7
871.586	77.48
871.878	77.11
872.171	76.44
872.463	76.19
872.756	76.58
873.048	76.71
873.341	76.76
873.633	77.17
873.925	77.89
874.217	77.73
874.509	77.23
874.801	77.6
875.093	78.08
875.385	76.43
875.677	75.47
875.969	76.22
