Data from pcis_p_h4_p6_Reflection_5.txt Node
Date: Wed Jul 12 18:07:48 ART 2017
User: rodoncho
Spectrometer: USB2E3644
Trigger mode: 4
Integration Time (sec): 6.000000E-2
Scans to average: 10
Electric dark correction enabled: true
Nonlinearity correction enabled: false
Boxcar width: 10
XAxis mode: Wavelengths
Number of Pixels in Spectrum: 2048
>>>>>Begin Spectral Data<<<<<
178.315	16.31
178.696	41.41
179.076	42.14
179.457	32.57
179.838	22.66
180.218	44.9
180.599	57.43
180.979	22.22
181.36	-2375
181.74	413.04
182.121	51.47
182.501	137.2
182.881	211.29
183.262	448.11
183.642	-220.15
184.022	-19.14
184.402	22.48
184.783	50.62
185.163	55.88
185.543	64.43
185.923	67.81
186.303	75.22
186.683	84.45
187.063	90.16
187.443	88.98
187.823	91.75
188.203	107.42
188.583	110.89
188.963	104.51
189.343	101.46
189.723	102.22
190.102	103.78
190.482	110.51
190.862	117.72
191.242	117.44
191.621	117.12
192.001	111.97
192.38	113.22
192.76	117.1
193.14	115.78
193.519	117.82
193.898	114.94
194.278	111.6
194.657	110.8
195.037	111.6
195.416	111.22
195.795	111.72
196.175	111.99
196.554	109.13
196.933	111.86
197.312	114.17
197.692	114.02
198.071	116.19
198.45	119.58
198.829	121.95
199.208	123.18
199.587	123.48
199.966	124.38
200.345	123.43
200.724	123.13
201.103	124.12
201.482	121.66
201.86	120.73
202.239	119.08
202.618	118.5
202.997	116.98
203.375	117.44
203.754	117.5
204.133	115.76
204.511	115.77
204.89	114.47
205.269	114.1
205.647	113.52
206.026	114.29
206.404	113.14
206.782	111.01
207.161	110.41
207.539	109.97
207.918	110.96
208.296	111.51
208.674	110.17
209.052	109.68
209.431	109.85
209.809	111.21
210.187	112.14
210.565	111.42
210.943	112.42
211.321	112.42
211.699	111.43
212.077	111.14
212.455	111.35
212.833	112.21
213.211	111.2
213.589	111.61
213.967	108.89
214.345	107.7
214.722	107.45
215.1	107.63
215.478	107.43
215.855	106.42
216.233	105.14
216.611	104.85
216.988	105.34
217.366	106
217.743	103.73
218.121	103.46
218.498	102.73
218.876	101.85
219.253	101.92
219.631	101.66
220.008	101.28
220.385	102.26
220.762	101.37
221.14	101.07
221.517	100.77
221.894	101.97
222.271	102.83
222.648	102.25
223.025	100.8
223.402	100.73
223.78	100.89
224.157	102.87
224.533	103.6
224.91	102.23
225.287	102.05
225.664	103.36
226.041	102.78
226.418	105.79
226.795	106.48
227.171	106.06
227.548	107.04
227.925	108.14
228.301	107.26
228.678	107.78
229.055	107.98
229.431	107.49
229.808	107.42
230.184	105.92
230.561	106.18
230.937	106.23
231.313	105.92
231.69	107.03
232.066	106.69
232.442	108.2
232.819	109.85
233.195	109.95
233.571	109.72
233.947	109.82
234.323	108.43
234.699	108.63
235.075	108.78
235.451	109.14
235.827	109.6
236.203	110.1
236.579	111.75
236.955	113.29
237.331	116.03
237.707	118.73
238.083	121.41
238.459	126.66
238.834	133.67
239.21	140.05
239.586	143.65
239.961	147.36
240.337	148.79
240.713	150.22
241.088	153.22
241.464	157.52
241.839	165.46
242.215	178.68
242.59	191.43
242.965	228.83
243.341	301.73
243.716	436.24
244.091	763.41
244.467	1576.15
244.842	15930.36
245.217	-2947.32
245.592	-2139.08
245.967	-1614.36
246.343	-1781.65
246.718	-1872.25
247.093	-1507.14
247.468	-1225.57
247.843	-910.11
248.218	-713.61
248.593	-546.43
248.967	-445.58
249.342	-409.97
249.717	-398.4
250.092	-413.17
250.467	-459.42
250.841	-649.11
251.216	-1483.78
251.591	8110
251.965	1181.66
252.34	759.85
252.714	601.15
253.089	536.44
253.463	525.29
253.838	531.09
254.212	589.28
254.587	642.97
254.961	751.16
255.335	1478.9
255.71	-2620.66
256.084	-488.63
256.458	-266.99
256.832	-188.86
257.206	-156.38
257.581	-140.2
257.955	-131.77
258.329	-121.62
258.703	-112.53
259.077	-105.84
259.451	-100.72
259.825	-94.98
260.199	-92.58
260.572	-89.83
260.946	-85.7
261.32	-83.36
261.694	-81.3
262.068	-79.71
262.441	-78.85
262.815	-76.87
263.189	-78.25
263.562	-83.56
263.936	-96.09
264.309	-115.32
264.683	-136.1
265.056	-149.34
265.43	-158.12
265.803	-158.52
266.176	-153.75
266.55	-152.78
266.923	-151.37
267.296	-149.02
267.67	-142.27
268.043	-129.46
268.416	-118.46
268.789	-107.52
269.162	-96.59
269.535	-89.74
269.908	-85.51
270.281	-81.81
270.654	-81.48
271.027	-83.23
271.4	-84.32
271.773	-83.75
272.146	-81.93
272.519	-78.96
272.891	-76.68
273.264	-76.18
273.637	-75.2
274.01	-76.69
274.382	-75.77
274.755	-74.18
275.127	-72.74
275.5	-74.25
275.872	-73.64
276.245	-73.17
276.617	-74.99
276.99	-78.93
277.362	-81.42
277.734	-81.8
278.107	-81.89
278.479	-79.11
278.851	-75.86
279.223	-72.24
279.596	-70.02
279.968	-68.87
280.34	-68.14
280.712	-66.17
281.084	-62.3
281.456	-56.56
281.828	-51.27
282.2	-47.17
282.572	-44.22
282.944	-42.15
283.315	-40.72
283.687	-40.74
284.059	-40.71
284.431	-40.01
284.802	-38.5
285.174	-36.81
285.546	-36.13
285.917	-35.72
286.289	-34.88
286.66	-33.93
287.032	-33.99
287.403	-33.69
287.775	-33.37
288.146	-33.35
288.518	-33.06
288.889	-32.87
289.26	-33.86
289.632	-35.01
290.003	-36.62
290.374	-37.74
290.745	-38.12
291.116	-37.6
291.487	-36.22
291.858	-34.7
292.229	-34.59
292.6	-33.75
292.971	-32.93
293.342	-30.83
293.713	-28.87
294.084	-28.07
294.455	-27.71
294.826	-26.84
295.196	-27.08
295.567	-26.89
295.938	-26.49
296.308	-26.68
296.679	-25.83
297.05	-24.92
297.42	-24.14
297.791	-22.9
298.161	-21.92
298.532	-21.31
298.902	-21.12
299.272	-20.92
299.643	-20.38
300.013	-19.54
300.383	-19.29
300.754	-18.93
301.124	-19.41
301.494	-19.86
301.864	-19.64
302.234	-19.77
302.604	-19.56
302.974	-18.68
303.344	-17.93
303.714	-17.78
304.084	-17.07
304.454	-16.92
304.824	-16.71
305.194	-15.96
305.563	-15.42
305.933	-14.73
306.303	-13.87
306.673	-13.17
307.042	-12.98
307.412	-12.7
307.781	-12.12
308.151	-11.28
308.521	-10.79
308.89	-10.04
309.259	-9.34
309.629	-9.08
309.998	-8.55
310.368	-8.54
310.737	-8.45
311.106	-8.35
311.475	-7.68
311.845	-7.54
312.214	-7.42
312.583	-6.94
312.952	-6.76
313.321	-6.73
313.69	-6.65
314.059	-6.91
314.428	-6.92
314.797	-6.87
315.166	-7.17
315.535	-7.29
315.904	-7.49
316.272	-7.79
316.641	-8.37
317.01	-8.62
317.379	-8.5
317.747	-8.34
318.116	-8.01
318.484	-7.83
318.853	-7.68
319.221	-7.61
319.59	-7.35
319.958	-6.9
320.327	-6.75
320.695	-6.44
321.063	-6.14
321.432	-5.99
321.8	-5.57
322.168	-4.79
322.536	-4.19
322.905	-3.56
323.273	-3.24
323.641	-2.92
324.009	-2.79
324.377	-2.44
324.745	-2.09
325.113	-1.89
325.481	-1.61
325.849	-1.13
326.216	-0.72
326.584	-0.24
326.952	0
327.32	0.45
327.687	0.6
328.055	0.77
328.423	0.84
328.79	0.86
329.158	0.96
329.525	1.22
329.893	1.19
330.26	1.38
330.628	1.38
330.995	1.74
331.362	2.08
331.73	2.5
332.097	2.89
332.464	3.31
332.831	3.5
333.199	3.8
333.566	4.02
333.933	3.98
334.3	4.06
334.667	4.36
335.034	4.47
335.401	4.64
335.768	4.81
336.135	4.95
336.502	5.22
336.868	5.37
337.235	5.65
337.602	6.02
337.969	6.17
338.335	6.45
338.702	6.59
339.069	6.72
339.435	7.08
339.802	7.29
340.168	7.44
340.535	7.75
340.901	7.89
341.267	8.05
341.634	8.46
342	8.64
342.366	8.78
342.733	8.93
343.099	9.1
343.465	9.22
343.831	9.47
344.197	9.62
344.563	9.93
344.929	10.18
345.295	10.33
345.661	10.51
346.027	10.69
346.393	10.67
346.759	10.6
347.125	10.62
347.491	10.7
347.856	10.76
348.222	10.77
348.588	10.84
348.953	10.92
349.319	11
349.684	11.07
350.05	11.06
350.415	11.18
350.781	11.37
351.146	11.51
351.512	11.5
351.877	11.67
352.242	11.73
352.608	11.61
352.973	11.66
353.338	11.74
353.703	11.86
354.068	12.14
354.433	12.46
354.798	12.58
355.164	12.68
355.528	12.77
355.893	12.84
356.258	12.93
356.623	12.91
356.988	12.93
357.353	13.12
357.718	13.35
358.082	13.52
358.447	13.49
358.812	13.55
359.176	13.66
359.541	13.7
359.905	13.81
360.27	13.98
360.634	14.03
360.999	14.1
361.363	14.21
361.728	14.22
362.092	14.23
362.456	14.25
362.821	14.28
363.185	14.35
363.549	14.54
363.913	14.62
364.277	14.75
364.641	14.89
365.005	14.91
365.369	15.01
365.733	15.04
366.097	15.18
366.461	15.32
366.825	15.45
367.189	15.59
367.553	15.74
367.916	15.88
368.28	16.01
368.644	16.19
369.007	16.32
369.371	16.47
369.734	16.61
370.098	16.83
370.461	17.05
370.825	17.2
371.188	17.3
371.552	17.49
371.915	17.63
372.278	17.74
372.642	17.93
373.005	18.05
373.368	18.16
373.731	18.27
374.094	18.28
374.457	18.39
374.82	18.45
375.183	18.49
375.546	18.63
375.909	18.75
376.272	18.8
376.635	18.81
376.998	18.86
377.361	18.96
377.723	19.02
378.086	19.08
378.449	19.16
378.811	19.29
379.174	19.39
379.537	19.49
379.899	19.6
380.262	19.71
380.624	19.76
380.987	19.85
381.349	19.9
381.711	20.03
382.074	20.15
382.436	20.25
382.798	20.39
383.16	20.34
383.522	20.39
383.884	20.48
384.247	20.63
384.609	20.74
384.971	20.78
385.333	20.84
385.695	20.87
386.056	20.92
386.418	20.88
386.78	20.89
387.142	20.87
387.504	20.91
387.865	20.91
388.227	20.97
388.589	20.99
388.95	21.05
389.312	21.06
389.673	21.08
390.035	21.09
390.396	21.06
390.758	21.11
391.119	21.1
391.48	21.12
391.842	21.16
392.203	21.17
392.564	21.2
392.925	21.26
393.286	21.29
393.648	21.33
394.009	21.37
394.37	21.41
394.731	21.51
395.092	21.51
395.452	21.53
395.813	21.54
396.174	21.55
396.535	21.59
396.896	21.68
397.257	21.72
397.617	21.78
397.978	21.81
398.338	21.89
398.699	21.98
399.06	22.01
399.42	22.02
399.781	22.06
400.141	22.06
400.501	22.01
400.862	22.05
401.222	22.03
401.582	22.08
401.943	22.1
402.303	22.09
402.663	22.12
403.023	22.17
403.383	22.2
403.743	22.24
404.103	22.25
404.463	22.27
404.823	22.32
405.183	22.37
405.543	22.44
405.903	22.44
406.262	22.44
406.622	22.47
406.982	22.47
407.342	22.49
407.701	22.55
408.061	22.59
408.42	22.64
408.78	22.7
409.139	22.7
409.499	22.73
409.858	22.79
410.217	22.85
410.577	22.88
410.936	22.93
411.295	22.99
411.655	23.04
412.014	23.05
412.373	23.07
412.732	23.05
413.091	23.03
413.45	23.01
413.809	23.02
414.168	22.98
414.527	22.92
414.886	22.86
415.245	22.82
415.603	22.78
415.962	22.72
416.321	22.67
416.679	22.61
417.038	22.56
417.397	22.48
417.755	22.41
418.114	22.34
418.472	22.26
418.831	22.2
419.189	22.15
419.547	22.1
419.906	22.04
420.264	21.98
420.622	21.95
420.981	21.92
421.339	21.88
421.697	21.85
422.055	21.86
422.413	21.85
422.771	21.83
423.129	21.84
423.487	21.83
423.845	21.84
424.203	21.86
424.56	21.86
424.918	21.88
425.276	21.91
425.634	21.96
425.991	22.01
426.349	22.04
426.707	22.09
427.064	22.12
427.422	22.18
427.779	22.24
428.137	22.31
428.494	22.37
428.851	22.43
429.209	22.53
429.566	22.56
429.923	22.63
430.28	22.66
430.637	22.69
430.995	22.7
431.352	22.74
431.709	22.78
432.066	22.83
432.423	22.88
432.78	22.89
433.137	22.91
433.493	22.98
433.85	23.04
434.207	23.04
434.564	23.08
434.92	23.1
435.277	23.14
435.634	23.15
435.99	23.2
436.347	23.23
436.703	23.26
437.06	23.3
437.416	23.31
437.773	23.33
438.129	23.37
438.485	23.42
438.841	23.44
439.198	23.45
439.554	23.46
439.91	23.47
440.266	23.49
440.622	23.5
440.978	23.46
441.334	23.42
441.69	23.42
442.046	23.38
442.402	23.35
442.758	23.29
443.113	23.23
443.469	23.17
443.825	23.12
444.181	23.11
444.536	23.09
444.892	23.08
445.247	23.06
445.603	23.03
445.958	23.01
446.314	22.96
446.669	22.95
447.025	22.9
447.38	22.86
447.735	22.83
448.09	22.79
448.446	22.77
448.801	22.75
449.156	22.73
449.511	22.72
449.866	22.7
450.221	22.73
450.576	22.74
450.931	22.76
451.286	22.77
451.641	22.77
451.995	22.76
452.35	22.76
452.705	22.78
453.06	22.78
453.414	22.81
453.769	22.83
454.123	22.83
454.478	22.86
454.832	22.9
455.187	22.92
455.541	22.96
455.896	22.99
456.25	23.04
456.604	23.08
456.958	23.12
457.313	23.16
457.667	23.19
458.021	23.26
458.375	23.33
458.729	23.39
459.083	23.47
459.437	23.55
459.791	23.61
460.145	23.7
460.499	23.77
460.852	23.85
461.206	23.96
461.56	24.05
461.914	24.16
462.267	24.24
462.621	24.37
462.974	24.5
463.328	24.69
463.681	24.84
464.035	25.03
464.388	25.21
464.742	25.37
465.095	25.55
465.448	25.69
465.801	25.83
466.155	25.96
466.508	26.08
466.861	26.17
467.214	26.29
467.567	26.36
467.92	26.45
468.273	26.51
468.626	26.58
468.979	26.68
469.332	26.76
469.684	26.84
470.037	26.9
470.39	26.97
470.743	27
471.095	27.07
471.448	27.12
471.8	27.17
472.153	27.21
472.505	27.23
472.858	27.25
473.21	27.25
473.562	27.23
473.915	27.2
474.267	27.17
474.619	27.13
474.971	27.09
475.324	27.06
475.676	27.01
476.028	26.96
476.38	26.88
476.732	26.8
477.084	26.74
477.436	26.64
477.787	26.53
478.139	26.43
478.491	26.33
478.843	26.22
479.195	26.1
479.546	25.93
479.898	25.73
480.249	25.59
480.601	25.48
480.952	25.38
481.304	25.28
481.655	25.21
482.007	25.13
482.358	25.07
482.709	25.01
483.061	24.97
483.412	24.94
483.763	24.91
484.114	24.89
484.465	24.86
484.816	24.87
485.167	24.87
485.518	24.87
485.869	24.88
486.22	24.89
486.571	24.92
486.922	24.96
487.272	25.02
487.623	25.09
487.974	25.17
488.324	25.29
488.675	25.43
489.025	25.54
489.376	25.66
489.726	25.78
490.077	25.89
490.427	26.03
490.778	26.17
491.128	26.33
491.478	26.52
491.828	26.74
492.179	26.93
492.529	27.15
492.879	27.4
493.229	27.61
493.579	27.82
493.929	28
494.279	28.22
494.629	28.44
494.979	28.67
495.328	28.96
495.678	29.29
496.028	29.62
496.378	29.93
496.727	30.24
497.077	30.52
497.426	30.78
497.776	31.02
498.125	31.24
498.475	31.46
498.824	31.67
499.174	31.87
499.523	32.09
499.872	32.29
500.221	32.47
500.571	32.7
500.92	32.94
501.269	33.15
501.618	33.38
501.967	33.57
502.316	33.78
502.665	33.97
503.014	34.14
503.363	34.31
503.711	34.5
504.06	34.63
504.409	34.79
504.758	34.95
505.106	35.08
505.455	35.17
505.803	35.29
506.152	35.38
506.5	35.47
506.849	35.56
507.197	35.68
507.546	35.79
507.894	35.87
508.242	35.97
508.59	36.03
508.939	36.09
509.287	36.19
509.635	36.27
509.983	36.33
510.331	36.42
510.679	36.49
511.027	36.54
511.375	36.63
511.723	36.68
512.07	36.75
512.418	36.83
512.766	36.93
513.114	36.99
513.461	37.06
513.809	37.16
514.156	37.23
514.504	37.28
514.851	37.33
515.199	37.37
515.546	37.39
515.893	37.48
516.241	37.56
516.588	37.61
516.935	37.66
517.282	37.71
517.63	37.74
517.977	37.76
518.324	37.81
518.671	37.86
519.018	37.9
519.365	37.93
519.711	37.97
520.058	38
520.405	38.04
520.752	38.08
521.099	38.11
521.445	38.14
521.792	38.18
522.138	38.24
522.485	38.3
522.832	38.39
523.178	38.45
523.524	38.49
523.871	38.53
524.217	38.57
524.563	38.59
524.91	38.63
525.256	38.7
525.602	38.73
525.948	38.74
526.294	38.74
526.64	38.74
526.986	38.73
527.332	38.73
527.678	38.74
528.024	38.74
528.37	38.77
528.716	38.78
529.061	38.8
529.407	38.8
529.753	38.82
530.098	38.83
530.444	38.83
530.789	38.86
531.135	38.86
531.48	38.89
531.826	38.92
532.171	38.93
532.516	38.93
532.862	38.96
533.207	38.99
533.552	39.04
533.897	39.1
534.242	39.14
534.587	39.18
534.932	39.22
535.277	39.26
535.622	39.29
535.967	39.33
536.312	39.38
536.657	39.43
537.001	39.48
537.346	39.53
537.691	39.59
538.035	39.61
538.38	39.68
538.724	39.69
539.069	39.72
539.413	39.76
539.758	39.76
540.102	39.79
540.446	39.83
540.791	39.85
541.135	39.87
541.479	39.88
541.823	39.9
542.167	39.92
542.512	39.95
542.856	39.95
543.2	39.95
543.543	39.95
543.887	39.97
544.231	40
544.575	40.03
544.919	40.04
545.262	40.09
545.606	40.12
545.95	40.14
546.293	40.19
546.637	40.21
546.98	40.31
547.324	40.33
547.667	40.38
548.011	40.41
548.354	40.44
548.697	40.49
549.04	40.55
549.384	40.59
549.727	40.61
550.07	40.64
550.413	40.72
550.756	40.8
551.099	40.85
551.442	40.87
551.785	40.91
552.128	40.97
552.47	40.99
552.813	40.96
553.156	40.99
553.499	41.04
553.841	41.07
554.184	41.03
554.526	41.06
554.869	41.03
555.211	41.04
555.554	41.05
555.896	41.06
556.238	41.09
556.581	41.1
556.923	41.12
557.265	41.15
557.607	41.15
557.949	41.17
558.291	41.19
558.633	41.19
558.975	41.16
559.317	41.15
559.659	41.18
560.001	41.25
560.343	41.29
560.685	41.28
561.026	41.29
561.368	41.31
561.71	41.32
562.051	41.38
562.393	41.4
562.734	41.42
563.076	41.42
563.417	41.4
563.759	41.37
564.1	41.38
564.441	41.39
564.782	41.37
565.124	41.33
565.465	41.33
565.806	41.35
566.147	41.39
566.488	41.44
566.829	41.42
567.17	41.36
567.511	41.34
567.851	41.31
568.192	41.29
568.533	41.27
568.874	41.28
569.214	41.24
569.555	41.22
569.895	41.21
570.236	41.21
570.576	41.23
570.917	41.24
571.257	41.2
571.598	41.22
571.938	41.23
572.278	41.24
572.618	41.21
572.959	41.19
573.299	41.16
573.639	41.12
573.979	41.13
574.319	41.16
574.659	41.18
574.999	41.19
575.339	41.18
575.678	41.22
576.018	41.2
576.358	41.21
576.698	41.24
577.037	41.23
577.377	41.22
577.716	41.18
578.056	41.2
578.395	41.24
578.735	41.23
579.074	41.18
579.413	41.19
579.753	41.21
580.092	41.22
580.431	41.27
580.77	41.31
581.109	41.3
581.448	41.25
581.787	41.22
582.126	41.22
582.465	41.27
582.804	41.25
583.143	41.28
583.482	41.25
583.82	41.24
584.159	41.24
584.498	41.21
584.836	41.21
585.175	41.19
585.514	41.18
585.852	41.11
586.19	41.14
586.529	41.16
586.867	41.2
587.205	41.2
587.544	41.19
587.882	41.19
588.22	41.19
588.558	41.23
588.896	41.24
589.234	41.2
589.572	41.15
589.91	41.12
590.248	41.12
590.586	41.12
590.924	41.16
591.262	41.23
591.599	41.26
591.937	41.29
592.275	41.3
592.612	41.29
592.95	41.36
593.287	41.39
593.625	41.39
593.962	41.4
594.299	41.44
594.637	41.43
594.974	41.42
595.311	41.43
595.648	41.44
595.985	41.42
596.322	41.44
596.659	41.48
596.996	41.47
597.333	41.46
597.67	41.49
598.007	41.44
598.344	41.41
598.681	41.42
599.017	41.38
599.354	41.39
599.691	41.38
600.027	41.38
600.364	41.36
600.7	41.35
601.037	41.3
601.373	41.24
601.71	41.24
602.046	41.26
602.382	41.27
602.718	41.24
603.054	41.29
603.391	41.3
603.727	41.29
604.063	41.3
604.399	41.3
604.735	41.31
605.071	41.34
605.406	41.31
605.742	41.29
606.078	41.31
606.414	41.31
606.749	41.38
607.085	41.35
607.421	41.33
607.756	41.32
608.092	41.33
608.427	41.34
608.762	41.3
609.098	41.27
609.433	41.27
609.768	41.25
610.104	41.25
610.439	41.25
610.774	41.26
611.109	41.23
611.444	41.25
611.779	41.2
612.114	41.19
612.449	41.17
612.784	41.17
613.118	41.15
613.453	41.11
613.788	41.04
614.123	41.06
614.457	41.02
614.792	41.03
615.126	41.01
615.461	40.99
615.795	41.02
616.13	41.02
616.464	41
616.798	41.05
617.132	41.07
617.467	41.01
617.801	40.98
618.135	41.01
618.469	40.99
618.803	40.96
619.137	40.97
619.471	40.97
619.805	40.97
620.139	40.98
620.472	41.03
620.806	41.08
621.14	41.03
621.473	41.1
621.807	41.08
622.141	41.11
622.474	41.11
622.808	41.13
623.141	41.16
623.474	41.15
623.808	41.1
624.141	41.1
624.474	41.1
624.807	41.13
625.141	41.16
625.474	41.17
625.807	41.2
626.14	41.21
626.473	41.23
626.806	41.22
627.138	41.21
627.471	41.18
627.804	41.17
628.137	41.21
628.469	41.2
628.802	41.2
629.135	41.17
629.467	41.18
629.8	41.16
630.132	41.17
630.465	41.21
630.797	41.24
631.129	41.17
631.461	41.19
631.794	41.16
632.126	41.14
632.458	41.16
632.79	41.14
633.122	41.07
633.454	41.13
633.786	41.17
634.118	41.17
634.45	41.18
634.781	41.13
635.113	41.14
635.445	41.14
635.777	41.17
636.108	41.18
636.44	41.2
636.771	41.2
637.103	41.18
637.434	41.18
637.765	41.15
638.097	41.18
638.428	41.2
638.759	41.21
639.09	41.24
639.422	41.19
639.753	41.22
640.084	41.33
640.415	41.23
640.746	41.25
641.077	41.22
641.407	41.22
641.738	41.25
642.069	41.22
642.4	41.19
642.73	41.17
643.061	41.14
643.392	41.13
643.722	41.16
644.053	41.13
644.383	41.12
644.713	41.21
645.044	41.18
645.374	41.17
645.704	41.17
646.034	41.12
646.365	41.14
646.695	41.16
647.025	41.12
647.355	41.11
647.685	41.12
648.015	41.21
648.344	41.28
648.674	41.26
649.004	41.28
649.334	41.35
649.663	41.34
649.993	41.42
650.323	41.48
650.652	41.45
650.982	41.47
651.311	41.48
651.64	41.44
651.97	41.46
652.299	41.45
652.628	41.46
652.958	41.46
653.287	41.5
653.616	41.48
653.945	41.41
654.274	41.4
654.603	41.36
654.932	41.29
655.261	41.22
655.589	41.26
655.918	41.33
656.247	41.32
656.576	41.37
656.904	41.38
657.233	41.31
657.561	41.31
657.89	41.28
658.218	41.24
658.547	41.25
658.875	41.26
659.203	41.23
659.532	41.27
659.86	41.28
660.188	41.29
660.516	41.32
660.844	41.39
661.172	41.42
661.5	41.42
661.828	41.4
662.156	41.36
662.484	41.32
662.811	41.24
663.139	41.19
663.467	41.14
663.794	41.08
664.122	41.01
664.45	40.95
664.777	40.93
665.104	41
665.432	40.92
665.759	40.9
666.086	40.91
666.414	40.9
666.741	40.92
667.068	40.91
667.395	40.77
667.722	40.69
668.049	40.68
668.376	40.66
668.703	40.76
669.03	40.79
669.357	40.77
669.683	40.8
670.01	40.83
670.337	40.84
670.663	40.8
670.99	40.82
671.317	40.9
671.643	40.97
671.969	40.96
672.296	40.98
672.622	41
672.948	41.11
673.275	41.03
673.601	41.04
673.927	41
674.253	41.17
674.579	41.2
674.905	41.24
675.231	41.25
675.557	41.19
675.883	41.28
676.209	41.31
676.534	41.35
676.86	41.36
677.186	41.39
677.511	41.41
677.837	41.5
678.162	41.44
678.488	41.42
678.813	41.43
679.139	41.53
679.464	41.6
679.789	41.54
680.114	41.57
680.44	41.6
680.765	41.6
681.09	41.58
681.415	41.6
681.74	41.65
682.065	41.63
682.39	41.61
682.714	41.59
683.039	41.54
683.364	41.57
683.689	41.6
684.013	41.6
684.338	41.59
684.662	41.56
684.987	41.68
685.311	41.59
685.636	41.55
685.96	41.47
686.284	41.4
686.608	41.35
686.933	41.35
687.257	41.31
687.581	41.33
687.905	41.32
688.229	41.3
688.553	41.27
688.877	41.25
689.201	41.24
689.524	41.27
689.848	41.33
690.172	41.25
690.496	41.22
690.819	41.23
691.143	41.24
691.466	41.22
691.79	41.18
692.113	41.23
692.436	41.19
692.76	41.22
693.083	41.19
693.406	41.22
693.729	41.19
694.053	41.17
694.376	41.17
694.699	41.21
695.022	41.22
695.344	41.36
695.667	41.52
695.99	41.6
696.313	41.65
696.636	41.62
696.958	41.67
697.281	41.62
697.604	41.59
697.926	41.62
698.249	41.63
698.571	41.56
698.893	41.6
699.216	41.59
699.538	41.54
699.86	41.54
700.182	41.59
700.504	41.65
700.827	41.65
701.149	41.61
701.471	41.6
701.793	41.63
702.114	41.46
702.436	41.32
702.758	41.22
703.08	41.07
703.401	41.1
703.723	41
704.045	41.06
704.366	41.07
704.688	40.99
705.009	40.95
705.331	41.03
705.652	41.08
705.973	41.12
706.294	41.17
706.616	41.21
706.937	41.06
707.258	41
707.579	41.11
707.9	41.23
708.221	41.21
708.542	41.16
708.863	41.2
709.183	41.23
709.504	41.31
709.825	41.32
710.145	41.36
710.466	41.41
710.787	41.29
711.107	41.17
711.427	41.17
711.748	41.25
712.068	41.25
712.388	41.17
712.709	41.25
713.029	41.27
713.349	41.22
713.669	41.28
713.989	41.36
714.309	41.3
714.629	41.27
714.949	41.29
715.269	41.3
715.589	41.28
715.908	41.3
716.228	41.32
716.548	41.3
716.867	41.31
717.187	41.26
717.506	41.39
717.826	41.43
718.145	41.47
718.465	41.51
718.784	41.65
719.103	41.66
719.422	41.69
719.741	41.66
720.061	41.74
720.38	41.85
720.699	41.86
721.018	41.84
721.336	41.84
721.655	42
721.974	42.15
722.293	42.3
722.612	42.47
722.93	42.5
723.249	42.67
723.567	42.69
723.886	42.75
724.204	42.8
724.523	42.94
724.841	43.07
725.159	43.07
725.477	43.13
725.796	43.31
726.114	43.36
726.432	43.45
726.75	43.58
727.068	43.67
727.386	43.81
727.704	43.77
728.022	43.83
728.339	43.76
728.657	43.83
728.975	43.81
729.292	43.79
729.61	43.84
729.928	43.79
730.245	43.86
730.562	44.05
730.88	44.08
731.197	44.34
731.514	44.4
731.832	44.58
732.149	44.64
732.466	44.69
732.783	44.76
733.1	44.81
733.417	44.98
733.734	45.01
734.051	45.08
734.368	45.21
734.684	45.38
735.001	45.62
735.318	45.65
735.634	45.72
735.951	45.8
736.268	45.94
736.584	46.18
736.9	46.29
737.217	46.18
737.533	46.33
737.849	46.16
738.166	46.29
738.482	46.42
738.798	46.28
739.114	46.33
739.43	46.43
739.746	46.57
740.062	46.42
740.378	46.55
740.693	46.54
741.009	46.71
741.325	46.76
741.641	46.71
741.956	46.96
742.272	47
742.587	47.06
742.903	47.13
743.218	47.14
743.533	47.15
743.849	47.4
744.164	47.33
744.479	47.63
744.794	47.67
745.109	47.48
745.424	47.84
745.739	47.89
746.054	47.88
746.369	47.86
746.684	47.94
746.999	47.98
747.313	48.05
747.628	48.04
747.943	48.2
748.257	48.26
748.572	48.25
748.886	48.33
749.201	48.4
749.515	48.38
749.829	48.33
750.144	48.43
750.458	48.55
750.772	48.67
751.086	48.69
751.4	48.71
751.714	48.94
752.028	48.84
752.342	49.02
752.656	49.08
752.97	49.24
753.284	49.3
753.597	49.25
753.911	49.23
754.225	49.35
754.538	49.36
754.852	49.33
755.165	49.14
755.478	49.3
755.792	49.39
756.105	49.54
756.418	49.63
756.731	49.58
757.045	49.64
757.358	49.7
757.671	49.69
757.984	49.71
758.297	49.82
758.609	49.84
758.922	49.86
759.235	49.84
759.548	49.9
759.86	49.83
760.173	49.73
760.486	49.73
760.798	49.59
761.111	49.51
761.423	49.49
761.735	49.53
762.048	49.4
762.36	49.29
762.672	49.31
762.984	49.34
763.296	49.36
763.608	49.3
763.92	49.34
764.232	49.36
764.544	49.47
764.856	49.43
765.168	49.36
765.48	49.36
765.791	49.55
766.103	49.55
766.414	49.82
766.726	50.05
767.037	50.14
767.349	50.4
767.66	50.66
767.972	50.95
768.283	51.21
768.594	51.57
768.905	51.9
769.216	51.95
769.527	52.16
769.838	52.43
770.149	52.69
770.46	52.92
770.771	53.08
771.082	53.15
771.393	53.21
771.703	53.61
772.014	53.69
772.324	53.6
772.635	53.83
772.945	53.91
773.256	54.1
773.566	54.56
773.877	54.92
774.187	54.88
774.497	54.92
774.807	55.04
775.117	55.11
775.427	55.25
775.737	55.21
776.047	55.26
776.357	55.47
776.667	55.61
776.977	55.59
777.287	55.89
777.596	56
777.906	55.83
778.216	55.96
778.525	56.06
778.835	56.06
779.144	55.96
779.453	55.91
779.763	55.94
780.072	55.67
780.381	55.27
780.69	55.51
781	55.35
781.309	55.42
781.618	55.44
781.927	55.48
782.235	55.84
782.544	56.1
782.853	55.98
783.162	56.03
783.471	56.01
783.779	55.93
784.088	55.81
784.396	56.17
784.705	56.21
785.013	56.08
785.322	56.14
785.63	55.94
785.938	55.89
786.246	56.03
786.554	55.88
786.863	56.23
787.171	56.11
787.479	56.4
787.787	56.56
788.094	56.55
788.402	56.37
788.71	56.43
789.018	56.06
789.326	56.06
789.633	56.23
789.941	56.39
790.248	56.29
790.556	56.48
790.863	56.69
791.171	56.64
791.478	56.88
791.785	57.04
792.092	57.43
792.399	57.49
792.707	57.47
793.014	58.03
793.321	57.51
793.628	57.56
793.934	57.69
794.241	57.59
794.548	57.59
794.855	57.69
795.161	57.58
795.468	57.78
795.775	57.71
796.081	57.6
796.388	57.67
796.694	57.69
797	57.65
797.307	57.52
797.613	57.45
797.919	57.41
798.225	57.35
798.531	57.21
798.837	57.59
799.143	57.62
799.449	57.37
799.755	57.82
800.061	58.13
800.367	58.04
800.672	58.16
800.978	58.25
801.284	58.02
801.589	58.14
801.895	58.17
802.2	58.49
802.506	58.34
802.811	58.27
803.116	58.38
803.421	58.62
803.727	58.59
804.032	58.65
804.337	58.79
804.642	58.79
804.947	59
805.252	58.93
805.556	58.81
805.861	58.77
806.166	58.77
806.471	58.12
806.775	58.14
807.08	58.21
807.384	58.35
807.689	58.71
807.993	58.5
808.298	58.85
808.602	58.93
808.906	59.17
809.211	59.29
809.515	59.37
809.819	59.3
810.123	59.44
810.427	59.7
810.731	59.64
811.035	59.94
811.338	59.92
811.642	60.03
811.946	60.51
812.25	60.41
812.553	60.42
812.857	61.26
813.16	61.47
813.464	61.81
813.767	61.88
814.07	61.8
814.374	62.42
814.677	62.57
814.98	62.68
815.283	62.48
815.586	62.21
815.889	61.93
816.192	61.79
816.495	61.65
816.798	61.47
817.101	61.22
817.404	60.79
817.706	60.31
818.009	59.46
818.312	58.76
818.614	58
818.917	57.01
819.219	55.5
819.521	53.93
819.824	52.5
820.126	51.6
820.428	50.94
820.73	50.41
821.032	49.98
821.334	49.58
821.636	49.37
821.938	49.29
822.24	49.19
822.542	49.09
822.844	48.9
823.145	48.8
823.447	48.64
823.749	48.62
824.05	48.55
824.352	48.46
824.653	48.36
824.955	48.39
825.256	48.33
825.557	48.39
825.858	48.59
826.16	48.73
826.461	49.01
826.762	49.27
827.063	49.52
827.364	49.79
827.665	50.15
827.965	50.49
828.266	50.73
828.567	51.05
828.868	51.29
829.168	51.6
829.469	51.86
829.769	52.41
830.07	52.53
830.37	52.94
830.67	53.27
830.971	53.68
831.271	53.93
831.571	54.46
831.871	54.67
832.171	54.6
832.471	54.93
832.771	54.72
833.071	54.7
833.371	54.76
833.671	54.6
833.971	54.49
834.27	54.4
834.57	54.56
834.869	54.66
835.169	54.77
835.468	55.08
835.768	55.14
836.067	55.02
836.367	55.34
836.666	55.74
836.965	56.27
837.264	56.51
837.563	57.28
837.862	57.61
838.161	58.23
838.46	58.94
838.759	59.22
839.058	59.57
839.356	60.3
839.655	60.82
839.954	61.77
840.252	62.55
840.551	63.15
840.849	63.5
841.148	63.68
841.446	63.97
841.744	64.76
842.043	65.21
842.341	65.6
842.639	65.67
842.937	65.28
843.235	65.97
843.533	67.02
843.831	67.56
844.129	67.98
844.427	68.27
844.724	69.45
845.022	70.42
845.32	71.41
845.617	72.37
845.915	73.1
846.212	73.46
846.51	74.08
846.807	75.29
847.104	75.56
847.402	75.74
847.699	76.19
847.996	76.05
848.293	76.21
848.59	76.65
848.887	76.78
849.184	77.22
849.481	76.69
849.778	76.21
850.074	75.83
850.371	76.29
850.668	77.15
850.964	77.38
851.261	77.68
851.557	78.46
851.854	78.79
852.15	79.55
852.446	79.97
852.743	80.13
853.039	79.35
853.335	78.99
853.631	80
853.927	80.18
854.223	80.31
854.519	80.03
854.815	80.03
855.111	80.22
855.406	79.98
855.702	81.03
855.998	80.86
856.293	81.52
856.589	81.74
856.884	82.25
857.18	82.6
857.475	82.99
857.77	82.67
858.066	82.62
858.361	82.35
858.656	81.98
858.951	81.42
859.246	82.05
859.541	82.35
859.836	80.9
860.131	81.22
860.426	80.76
860.72	81.08
861.015	81.13
861.31	81.79
861.604	82.36
861.899	81.86
862.193	83.02
862.487	82.51
862.782	82.89
863.076	81.02
863.37	80.18
863.664	79.94
863.959	80.17
864.253	79.19
864.547	78
864.841	77.59
865.135	77.73
865.428	77.13
865.722	76.68
866.016	76.62
866.31	74.83
866.603	74.42
866.897	73.87
867.19	73.71
867.484	72.94
867.777	72.12
868.07	71.35
868.364	71.21
868.657	71.21
868.95	70.62
869.243	71.8
869.536	71.05
869.829	70.33
870.122	70.19
870.415	71.27
870.708	72.6
871	72.62
871.293	72.83
871.586	73.76
871.878	74.59
872.171	75.68
872.463	76.36
872.756	75.8
873.048	75.88
873.341	75.7
873.633	75.75
873.925	76.34
874.217	77.1
874.509	76.39
874.801	76.1
875.093	76.55
875.385	76.55
875.677	77.7
875.969	79.17
