Data from pcis_p_m4_p3_Reflection_1.txt Node
Date: Wed Jul 12 17:58:23 ART 2017
User: rodoncho
Spectrometer: USB2E3644
Trigger mode: 4
Integration Time (sec): 6.000000E-2
Scans to average: 10
Electric dark correction enabled: true
Nonlinearity correction enabled: false
Boxcar width: 10
XAxis mode: Wavelengths
Number of Pixels in Spectrum: 2048
>>>>>Begin Spectral Data<<<<<
178.315	-312.28
178.696	-177.78
179.076	-533.33
179.457	-645.83
179.838	214.81
180.218	-68.63
180.599	104.5
180.979	35
181.36	78.91
181.74	-152.08
182.121	-5533.33
182.501	67.64
182.881	39.92
183.262	-13.75
183.642	-271.6
184.022	13533.33
184.402	363.4
184.783	298.25
185.163	249.88
185.543	207.29
185.923	228.05
186.303	187.03
186.683	181.62
187.063	171.21
187.443	172.34
187.823	156.86
188.203	145.31
188.583	155.02
188.963	154.98
189.343	149.1
189.723	145.64
190.102	141.78
190.482	137.12
190.862	134.53
191.242	133.42
191.621	129.69
192.001	126.75
192.38	125.29
192.76	122.69
193.14	122.8
193.519	127.02
193.898	121.73
194.278	120.99
194.657	120.01
195.037	119.8
195.416	119.83
195.795	122.09
196.175	124.54
196.554	124.35
196.933	122.97
197.312	123.34
197.692	123.53
198.071	123.62
198.45	122.86
198.829	121.15
199.208	122.18
199.587	123.68
199.966	122.76
200.345	123.91
200.724	123.53
201.103	124.49
201.482	122.79
201.86	123.87
202.239	124.15
202.618	122.12
202.997	121.87
203.375	122.73
203.754	120.48
204.133	119.16
204.511	119.1
204.89	120.52
205.269	122.35
205.647	122.01
206.026	121.91
206.404	122.63
206.782	120.67
207.161	119.62
207.539	119.87
207.918	120.88
208.296	122.92
208.674	123.53
209.052	122.56
209.431	121.99
209.809	123.61
210.187	125.78
210.565	127.8
210.943	127.5
211.321	126.89
211.699	127.54
212.077	127.2
212.455	125.09
212.833	123.69
213.211	122.47
213.589	122.88
213.967	123.87
214.345	124.9
214.722	126.63
215.1	126.57
215.478	126.53
215.855	126.83
216.233	125.02
216.611	125.95
216.988	126.87
217.366	126.69
217.743	125.47
218.121	123.55
218.498	122.67
218.876	121.49
219.253	120.4
219.631	119.63
220.008	119.94
220.385	121.31
220.762	123.12
221.14	123.14
221.517	122.01
221.894	119.58
222.271	118.48
222.648	119.46
223.025	120.56
223.402	121.19
223.78	120.33
224.157	118.28
224.533	116.51
224.91	116.37
225.287	116.7
225.664	116.66
226.041	115.58
226.418	115.71
226.795	117.46
227.171	117.31
227.548	116.7
227.925	116.28
228.301	115.56
228.678	114.24
229.055	114.19
229.431	114.1
229.808	114.6
230.184	114.82
230.561	113.28
230.937	112.31
231.313	111.43
231.69	111.31
232.066	113.58
232.442	115.8
232.819	117.66
233.195	119.21
233.571	120.17
233.947	120.83
234.323	120.12
234.699	120.54
235.075	122.36
235.451	124.69
235.827	125.45
236.203	125.47
236.579	126.08
236.955	126.22
237.331	127.62
237.707	129.39
238.083	132
238.459	137
238.834	143.72
239.21	149.81
239.586	154.17
239.961	157.78
240.337	159.86
240.713	160.11
241.088	160.01
241.464	164.9
241.839	174.04
242.215	187.1
242.59	198.01
242.965	229.96
243.341	297.25
243.716	414.25
244.091	711.88
244.467	1540.18
244.842	9818.39
245.217	-2510.91
245.592	-1543.42
245.967	-1188.93
246.343	-1373.14
246.718	-1760.81
247.093	-1558.56
247.468	-1420.36
247.843	-1225.25
248.218	-882.26
248.593	-630.32
248.967	-469.94
249.342	-419.34
249.717	-404.15
250.092	-409.98
250.467	-433.69
250.841	-584.11
251.216	-1242.27
251.591	32814.81
251.965	1318.65
252.34	828.7
252.714	685.69
253.089	580.67
253.463	553.16
253.838	545.78
254.212	594.98
254.587	709.92
254.961	955.36
255.335	2478.22
255.71	-1673.15
256.084	-482.73
256.458	-278.26
256.832	-198.71
257.206	-168.75
257.581	-150.04
257.955	-140.79
258.329	-130.47
258.703	-121.93
259.077	-115.04
259.451	-109.07
259.825	-101.85
260.199	-97.55
260.572	-95.5
260.946	-90.45
261.32	-87.26
261.694	-83.34
262.068	-80.31
262.441	-78.21
262.815	-77.7
263.189	-78.38
263.562	-82.54
263.936	-94.04
264.309	-111.16
264.683	-130.02
265.056	-142.33
265.43	-149.77
265.803	-147.85
266.176	-142.12
266.55	-142.07
266.923	-140.56
267.296	-135.14
267.67	-129.84
268.043	-119.51
268.416	-108.69
268.789	-100.31
269.162	-90.06
269.535	-84.54
269.908	-80.26
270.281	-78.33
270.654	-78.24
271.027	-80.02
271.4	-81.63
271.773	-81.77
272.146	-80.24
272.519	-77.41
272.891	-75.16
273.264	-74.15
273.637	-73.42
274.01	-74.96
274.382	-72.91
274.755	-71.53
275.127	-71.78
275.5	-72.51
275.872	-73.67
276.245	-73.55
276.617	-74.51
276.99	-76.71
277.362	-78.29
277.734	-78.82
278.107	-77.35
278.479	-73.44
278.851	-69.89
279.223	-66
279.596	-64.33
279.968	-63.31
280.34	-63.64
280.712	-61.28
281.084	-58.12
281.456	-53.21
281.828	-48.77
282.2	-45.13
282.572	-42.13
282.944	-39.97
283.315	-38.72
283.687	-37.83
284.059	-37.49
284.431	-37.37
284.802	-37.45
285.174	-36.42
285.546	-35.51
285.917	-35.05
286.289	-34.19
286.66	-33.4
287.032	-33.35
287.403	-32.53
287.775	-32.09
288.146	-31.9
288.518	-32.37
288.889	-32.22
289.26	-33.52
289.632	-34.79
290.003	-36.34
290.374	-37.38
290.745	-37.68
291.116	-37.31
291.487	-36.18
291.858	-35.25
292.229	-34.32
292.6	-32.81
292.971	-31.78
293.342	-29.88
293.713	-28.25
294.084	-27.16
294.455	-26.08
294.826	-25.29
295.196	-25.43
295.567	-25.27
295.938	-24.9
296.308	-24.58
296.679	-24.05
297.05	-23.06
297.42	-22.16
297.791	-21.12
298.161	-20.3
298.532	-19.74
298.902	-19.22
299.272	-19.15
299.643	-18.95
300.013	-18.77
300.383	-18.6
300.754	-18.37
301.124	-18.77
301.494	-18.78
301.864	-18.8
302.234	-18.8
302.604	-18.95
302.974	-18.92
303.344	-18.81
303.714	-18.6
304.084	-17.69
304.454	-17.6
304.824	-17.05
305.194	-16.47
305.563	-15.52
305.933	-14.32
306.303	-13.13
306.673	-12.57
307.042	-11.77
307.412	-10.77
307.781	-9.68
308.151	-8.6
308.521	-7.69
308.89	-6.88
309.259	-6.37
309.629	-5.95
309.998	-5.88
310.368	-5.58
310.737	-4.91
311.106	-4.21
311.475	-3.37
311.845	-3.11
312.214	-2.6
312.583	-2.26
312.952	-1.8
313.321	-1.83
313.69	-2.08
314.059	-2.17
314.428	-2.08
314.797	-2.18
315.166	-2.64
315.535	-2.72
315.904	-3.04
316.272	-3.28
316.641	-3.3
317.01	-3.19
317.379	-3.11
317.747	-2.78
318.116	-2.52
318.484	-2.39
318.853	-2.11
319.221	-1.59
319.59	-0.9
319.958	-0.37
320.327	-0.14
320.695	0.01
321.063	0.33
321.432	0.88
321.8	1.14
322.168	2.08
322.536	2.85
322.905	3.74
323.273	4.39
323.641	4.8
324.009	4.72
324.377	4.96
324.745	5.18
325.113	5.67
325.481	6.4
325.849	7.28
326.216	7.9
326.584	8.38
326.952	8.44
327.32	8.43
327.687	8.63
328.055	8.92
328.423	9.27
328.79	9.74
329.158	9.99
329.525	10.48
329.893	10.46
330.26	10.65
330.628	10.87
330.995	11.1
331.362	11.45
331.73	12.25
332.097	12.61
332.464	13.04
332.831	13.23
333.199	13.34
333.566	13.42
333.933	13.48
334.3	13.54
334.667	13.79
335.034	13.95
335.401	14.05
335.768	14.24
336.135	14.29
336.502	14.31
336.868	14.56
337.235	14.87
337.602	15.32
337.969	15.7
338.335	15.97
338.702	16.13
339.069	16.32
339.435	16.47
339.802	16.59
340.168	16.69
340.535	16.92
340.901	16.96
341.267	17.19
341.634	17.46
342	17.86
342.366	18.04
342.733	18.3
343.099	18.7
343.465	18.94
343.831	19.27
344.197	19.49
344.563	19.57
344.929	19.65
345.295	19.68
345.661	19.78
346.027	19.88
346.393	19.98
346.759	19.9
347.125	19.92
347.491	20.07
347.856	20.23
348.222	20.2
348.588	20.42
348.953	20.34
349.319	20.38
349.684	20.27
350.05	20.28
350.415	20.46
350.781	20.38
351.146	20.43
351.512	20.46
351.877	20.55
352.242	20.56
352.608	20.53
352.973	20.49
353.338	20.45
353.703	20.55
354.068	20.57
354.433	20.79
354.798	20.91
355.164	20.91
355.528	20.89
355.893	20.96
356.258	20.85
356.623	20.81
356.988	20.82
357.353	20.88
357.718	20.91
358.082	20.83
358.447	20.81
358.812	20.75
359.176	20.75
359.541	20.74
359.905	20.73
360.27	20.7
360.634	20.84
360.999	20.97
361.363	21.01
361.728	21
362.092	20.9
362.456	20.84
362.821	20.83
363.185	20.79
363.549	20.88
363.913	20.94
364.277	21
364.641	21
365.005	20.93
365.369	20.89
365.733	20.88
366.097	20.96
366.461	20.98
366.825	20.87
367.189	20.83
367.553	20.88
367.916	20.9
368.28	20.81
368.644	20.8
369.007	20.68
369.371	20.72
369.734	20.67
370.098	20.65
370.461	20.63
370.825	20.61
371.188	20.57
371.552	20.46
371.915	20.43
372.278	20.37
372.642	20.38
373.005	20.36
373.368	20.26
373.731	20.14
374.094	20.07
374.457	20.03
374.82	19.97
375.183	19.87
375.546	19.79
375.909	19.75
376.272	19.53
376.635	19.44
376.998	19.3
377.361	19.24
377.723	19.12
378.086	19.01
378.449	18.92
378.811	18.82
379.174	18.75
379.537	18.61
379.899	18.52
380.262	18.45
380.624	18.34
380.987	18.31
381.349	18.26
381.711	18.21
382.074	18.12
382.436	18.1
382.798	18
383.16	17.9
383.522	17.82
383.884	17.83
384.247	17.77
384.609	17.76
384.971	17.72
385.333	17.74
385.695	17.73
386.056	17.65
386.418	17.49
386.78	17.44
387.142	17.36
387.504	17.26
387.865	17.09
388.227	17.02
388.589	16.95
388.95	16.81
389.312	16.68
389.673	16.56
390.035	16.44
390.396	16.34
390.758	16.26
391.119	16.09
391.48	15.93
391.842	15.81
392.203	15.64
392.564	15.52
392.925	15.36
393.286	15.21
393.648	15.09
394.009	15
394.37	14.85
394.731	14.71
395.092	14.61
395.452	14.51
395.813	14.4
396.174	14.28
396.535	14.18
396.896	14.07
397.257	13.96
397.617	13.87
397.978	13.77
398.338	13.67
398.699	13.64
399.06	13.56
399.42	13.43
399.781	13.36
400.141	13.23
400.501	13.13
400.862	13.05
401.222	13.01
401.582	12.99
401.943	12.97
402.303	12.94
402.663	12.88
403.023	12.83
403.383	12.76
403.743	12.72
404.103	12.71
404.463	12.7
404.823	12.71
405.183	12.69
405.543	12.66
405.903	12.61
406.262	12.56
406.622	12.55
406.982	12.56
407.342	12.56
407.701	12.6
408.061	12.6
408.42	12.6
408.78	12.56
409.139	12.51
409.499	12.49
409.858	12.48
410.217	12.5
410.577	12.46
410.936	12.47
411.295	12.45
411.655	12.4
412.014	12.35
412.373	12.27
412.732	12.19
413.091	12.12
413.45	12.06
413.809	11.98
414.168	11.86
414.527	11.73
414.886	11.62
415.245	11.5
415.603	11.36
415.962	11.21
416.321	11.09
416.679	10.97
417.038	10.82
417.397	10.67
417.755	10.52
418.114	10.42
418.472	10.31
418.831	10.21
419.189	10.12
419.547	10.03
419.906	9.94
420.264	9.85
420.622	9.78
420.981	9.69
421.339	9.61
421.697	9.55
422.055	9.49
422.413	9.43
422.771	9.4
423.129	9.37
423.487	9.37
423.845	9.35
424.203	9.33
424.56	9.34
424.918	9.34
425.276	9.35
425.634	9.38
425.991	9.38
426.349	9.38
426.707	9.4
427.064	9.41
427.422	9.44
427.779	9.46
428.137	9.46
428.494	9.5
428.851	9.57
429.209	9.59
429.566	9.64
429.923	9.65
430.28	9.62
430.637	9.63
430.995	9.6
431.352	9.58
431.709	9.61
432.066	9.62
432.423	9.63
432.78	9.66
433.137	9.64
433.493	9.66
433.85	9.68
434.207	9.65
434.564	9.65
434.92	9.66
435.277	9.67
435.634	9.69
435.99	9.67
436.347	9.63
436.703	9.65
437.06	9.62
437.416	9.6
437.773	9.63
438.129	9.62
438.485	9.63
438.841	9.63
439.198	9.61
439.554	9.59
439.91	9.6
440.266	9.57
440.622	9.54
440.978	9.51
441.334	9.46
441.69	9.43
442.046	9.38
442.402	9.33
442.758	9.26
443.113	9.21
443.469	9.17
443.825	9.13
444.181	9.09
444.536	9.06
444.892	9.03
445.247	8.99
445.603	8.96
445.958	8.94
446.314	8.91
446.669	8.88
447.025	8.84
447.38	8.8
447.735	8.78
448.09	8.75
448.446	8.73
448.801	8.72
449.156	8.72
449.511	8.71
449.866	8.72
450.221	8.74
450.576	8.74
450.931	8.74
451.286	8.72
451.641	8.71
451.995	8.73
452.35	8.75
452.705	8.77
453.06	8.8
453.414	8.82
453.769	8.83
454.123	8.84
454.478	8.83
454.832	8.85
455.187	8.85
455.541	8.83
455.896	8.8
456.25	8.79
456.604	8.77
456.958	8.78
457.313	8.77
457.667	8.77
458.021	8.8
458.375	8.83
458.729	8.88
459.083	8.92
459.437	8.94
459.791	8.96
460.145	8.99
460.499	9.02
460.852	9.06
461.206	9.11
461.56	9.16
461.914	9.23
462.267	9.27
462.621	9.34
462.974	9.45
463.328	9.58
463.681	9.72
464.035	9.87
464.388	10.01
464.742	10.15
465.095	10.28
465.448	10.4
465.801	10.54
466.155	10.64
466.508	10.75
466.861	10.86
467.214	10.98
467.567	11.08
467.92	11.18
468.273	11.25
468.626	11.33
468.979	11.4
469.332	11.49
469.684	11.56
470.037	11.66
470.39	11.72
470.743	11.78
471.095	11.83
471.448	11.87
471.8	11.9
472.153	11.92
472.505	11.94
472.858	11.92
473.21	11.87
473.562	11.82
473.915	11.75
474.267	11.67
474.619	11.59
474.971	11.5
475.324	11.38
475.676	11.3
476.028	11.18
476.38	11.09
476.732	10.95
477.084	10.85
477.436	10.69
477.787	10.55
478.139	10.41
478.491	10.28
478.843	10.12
479.195	9.97
479.546	9.8
479.898	9.58
480.249	9.39
480.601	9.22
480.952	9.1
481.304	9
481.655	8.92
482.007	8.84
482.358	8.79
482.709	8.75
483.061	8.72
483.412	8.7
483.763	8.67
484.114	8.65
484.465	8.63
484.816	8.63
485.167	8.62
485.518	8.61
485.869	8.61
486.22	8.61
486.571	8.64
486.922	8.66
487.272	8.7
487.623	8.76
487.974	8.85
488.324	8.96
488.675	9.06
489.025	9.16
489.376	9.25
489.726	9.36
490.077	9.45
490.427	9.55
490.778	9.66
491.128	9.81
491.478	10
491.828	10.22
492.179	10.43
492.529	10.69
492.879	10.97
493.229	11.26
493.579	11.56
493.929	11.84
494.279	12.14
494.629	12.49
494.979	12.9
495.328	13.38
495.678	13.92
496.028	14.51
496.378	15.11
496.727	15.68
497.077	16.27
497.426	16.85
497.776	17.42
498.125	18
498.475	18.57
498.824	19.11
499.174	19.69
499.523	20.3
499.872	20.95
500.221	21.63
500.571	22.34
500.92	23.08
501.269	23.82
501.618	24.55
501.967	25.28
502.316	26.01
502.665	26.76
503.014	27.48
503.363	28.21
503.711	28.89
504.06	29.61
504.409	30.29
504.758	30.92
505.106	31.55
505.455	32.14
505.803	32.74
506.152	33.29
506.5	33.79
506.849	34.28
507.197	34.72
507.546	35.17
507.894	35.62
508.242	36.05
508.59	36.47
508.939	36.88
509.287	37.25
509.635	37.6
509.983	37.92
510.331	38.23
510.679	38.53
511.027	38.82
511.375	39.1
511.723	39.38
512.07	39.71
512.418	39.99
512.766	40.26
513.114	40.49
513.461	40.76
513.809	41
514.156	41.24
514.504	41.52
514.851	41.74
515.199	41.97
515.546	42.19
515.893	42.4
516.241	42.59
516.588	42.76
516.935	42.92
517.282	43.09
517.63	43.25
517.977	43.36
518.324	43.51
518.671	43.63
519.018	43.72
519.365	43.8
519.711	43.9
520.058	44.02
520.405	44.14
520.752	44.23
521.099	44.34
521.445	44.45
521.792	44.55
522.138	44.73
522.485	44.83
522.832	44.96
523.178	45.12
523.524	45.25
523.871	45.35
524.217	45.45
524.563	45.56
524.91	45.72
525.256	45.89
525.602	46
525.948	46.07
526.294	46.13
526.64	46.17
526.986	46.23
527.332	46.25
527.678	46.3
528.024	46.34
528.37	46.38
528.716	46.43
529.061	46.47
529.407	46.5
529.753	46.55
530.098	46.6
530.444	46.62
530.789	46.65
531.135	46.68
531.48	46.72
531.826	46.76
532.171	46.77
532.516	46.75
532.862	46.77
533.207	46.8
533.552	46.83
533.897	46.87
534.242	46.89
534.587	46.92
534.932	46.93
535.277	46.97
535.622	46.98
535.967	47
536.312	47.01
536.657	47.04
537.001	47.08
537.346	47.07
537.691	47.1
538.035	47.11
538.38	47.13
538.724	47.15
539.069	47.13
539.413	47.13
539.758	47.13
540.102	47.09
540.446	47.08
540.791	47.07
541.135	47.07
541.479	47.05
541.823	47.06
542.167	47.01
542.512	46.98
542.856	46.96
543.2	46.94
543.543	46.91
543.887	46.89
544.231	46.86
544.575	46.84
544.919	46.81
545.262	46.77
545.606	46.75
545.95	46.71
546.293	46.71
546.637	46.66
546.98	46.65
547.324	46.65
547.667	46.63
548.011	46.6
548.354	46.57
548.697	46.54
549.04	46.48
549.384	46.45
549.727	46.42
550.07	46.37
550.413	46.3
550.756	46.26
551.099	46.18
551.442	46.13
551.785	46.07
552.128	46.02
552.47	45.93
552.813	45.84
553.156	45.76
553.499	45.68
553.841	45.65
554.184	45.55
554.526	45.51
554.869	45.41
555.211	45.35
555.554	45.25
555.896	45.16
556.238	45.1
556.581	45.03
556.923	44.96
557.265	44.86
557.607	44.78
557.949	44.68
558.291	44.59
558.633	44.46
558.975	44.35
559.317	44.22
559.659	44.16
560.001	44.01
560.343	43.91
560.685	43.79
561.026	43.71
561.368	43.57
561.71	43.43
562.051	43.37
562.393	43.28
562.734	43.19
563.076	43.08
563.417	42.94
563.759	42.84
564.1	42.71
564.441	42.59
564.782	42.45
565.124	42.34
565.465	42.22
565.806	42.09
566.147	42.01
566.488	41.91
566.829	41.76
567.17	41.68
567.511	41.56
567.851	41.45
568.192	41.3
568.533	41.19
568.874	41.06
569.214	40.9
569.555	40.74
569.895	40.6
570.236	40.48
570.576	40.31
570.917	40.15
571.257	40.03
571.598	39.92
571.938	39.83
572.278	39.74
572.618	39.64
572.959	39.52
573.299	39.4
573.639	39.28
573.979	39.2
574.319	39.08
574.659	38.96
574.999	38.88
575.339	38.75
575.678	38.61
576.018	38.47
576.358	38.35
576.698	38.22
577.037	38.08
577.377	37.95
577.716	37.85
578.056	37.73
578.395	37.57
578.735	37.42
579.074	37.27
579.413	37.05
579.753	36.89
580.092	36.78
580.431	36.63
580.77	36.49
581.109	36.35
581.448	36.2
581.787	36.04
582.126	35.86
582.465	35.72
582.804	35.61
583.143	35.48
583.482	35.33
583.82	35.2
584.159	35.05
584.498	34.93
584.836	34.79
585.175	34.62
585.514	34.49
585.852	34.39
586.19	34.22
586.529	34.1
586.867	33.96
587.205	33.84
587.544	33.72
587.882	33.59
588.22	33.42
588.558	33.31
588.896	33.18
589.234	33.11
589.572	32.99
589.91	32.85
590.248	32.74
590.586	32.65
590.924	32.52
591.262	32.4
591.599	32.28
591.937	32.16
592.275	32.05
592.612	31.93
592.95	31.76
593.287	31.65
593.625	31.51
593.962	31.41
594.299	31.33
594.637	31.23
594.974	31.13
595.311	31.04
595.648	30.93
595.985	30.85
596.322	30.7
596.659	30.58
596.996	30.49
597.333	30.38
597.67	30.22
598.007	30.11
598.344	29.97
598.681	29.86
599.017	29.75
599.354	29.66
599.691	29.5
600.027	29.37
600.364	29.23
600.7	29.1
601.037	28.94
601.373	28.74
601.71	28.61
602.046	28.48
602.382	28.39
602.718	28.27
603.054	28.17
603.391	28.08
603.727	27.98
604.063	27.88
604.399	27.74
604.735	27.66
605.071	27.59
605.406	27.53
605.742	27.44
606.078	27.35
606.414	27.26
606.749	27.21
607.085	27.1
607.421	27
607.756	26.88
608.092	26.74
608.427	26.6
608.762	26.44
609.098	26.29
609.433	26.12
609.768	26.01
610.104	25.87
610.439	25.77
610.774	25.67
611.109	25.56
611.444	25.51
611.779	25.41
612.114	25.3
612.449	25.18
612.784	25.06
613.118	24.89
613.453	24.72
613.788	24.54
614.123	24.41
614.457	24.27
614.792	24.16
615.126	24.05
615.461	23.96
615.795	23.83
616.13	23.76
616.464	23.73
616.798	23.63
617.132	23.57
617.467	23.51
617.801	23.41
618.135	23.36
618.469	23.3
618.803	23.16
619.137	23.06
619.471	22.97
619.805	22.84
620.139	22.79
620.472	22.7
620.806	22.62
621.14	22.52
621.473	22.46
621.807	22.33
622.141	22.24
622.474	22.14
622.808	22.08
623.141	21.97
623.474	21.89
623.808	21.82
624.141	21.73
624.474	21.6
624.807	21.57
625.141	21.48
625.474	21.41
625.807	21.39
626.14	21.34
626.473	21.27
626.806	21.23
627.138	21.16
627.471	21.07
627.804	21.03
628.137	20.97
628.469	20.9
628.802	20.85
629.135	20.77
629.467	20.68
629.8	20.62
630.132	20.57
630.465	20.44
630.797	20.38
631.129	20.3
631.461	20.26
631.794	20.2
632.126	20.1
632.458	20.04
632.79	19.98
633.122	19.89
633.454	19.82
633.786	19.77
634.118	19.74
634.45	19.71
634.781	19.6
635.113	19.54
635.445	19.45
635.777	19.41
636.108	19.38
636.44	19.33
636.771	19.25
637.103	19.13
637.434	19.07
637.765	18.97
638.097	18.9
638.428	18.77
638.759	18.66
639.09	18.58
639.422	18.5
639.753	18.41
640.084	18.36
640.415	18.29
640.746	18.18
641.077	18.07
641.407	17.98
641.738	17.93
642.069	17.88
642.4	17.81
642.73	17.71
643.061	17.63
643.392	17.58
643.722	17.51
644.053	17.47
644.383	17.45
644.713	17.35
645.044	17.28
645.374	17.24
645.704	17.21
646.034	17.2
646.365	17.16
646.695	17.11
647.025	17.05
647.355	16.97
647.685	16.93
648.015	16.91
648.344	16.91
648.674	16.9
649.004	16.86
649.334	16.85
649.663	16.85
649.993	16.85
650.323	16.85
650.652	16.78
650.982	16.71
651.311	16.63
651.64	16.64
651.97	16.62
652.299	16.59
652.628	16.58
652.958	16.53
653.287	16.5
653.616	16.43
653.945	16.36
654.274	16.35
654.603	16.33
654.932	16.26
655.261	16.24
655.589	16.2
655.918	16.26
656.247	16.31
656.576	16.32
656.904	16.31
657.233	16.35
657.561	16.37
657.89	16.38
658.218	16.36
658.547	16.3
658.875	16.34
659.203	16.3
659.532	16.2
659.86	16.16
660.188	16.11
660.516	16.1
660.844	16.09
661.172	16.04
661.5	15.96
661.828	15.9
662.156	15.83
662.484	15.73
662.811	15.65
663.139	15.47
663.467	15.38
663.794	15.26
664.122	15.1
664.45	15
664.777	14.98
665.104	14.96
665.432	14.86
665.759	14.74
666.086	14.74
666.414	14.78
666.741	14.78
667.068	14.78
667.395	14.75
667.722	14.78
668.049	14.8
668.376	14.8
668.703	14.76
669.03	14.73
669.357	14.75
669.683	14.64
670.01	14.65
670.337	14.62
670.663	14.63
670.99	14.6
671.317	14.54
671.643	14.54
671.969	14.51
672.296	14.56
672.622	14.55
672.948	14.47
673.275	14.35
673.601	14.31
673.927	14.21
674.253	14.19
674.579	14.1
674.905	14.05
675.231	14.03
675.557	14.05
675.883	14.03
676.209	14.05
676.534	14.07
676.86	14.11
677.186	14.11
677.511	14.16
677.837	14.15
678.162	14.16
678.488	14.16
678.813	14.15
679.139	14.15
679.464	14.16
679.789	14.2
680.114	14.25
680.44	14.28
680.765	14.31
681.09	14.28
681.415	14.3
681.74	14.27
682.065	14.27
682.39	14.23
682.714	14.21
683.039	14.13
683.364	14.1
683.689	14.06
684.013	14
684.338	13.87
684.662	13.86
684.987	13.85
685.311	13.75
685.636	13.68
685.96	13.6
686.284	13.51
686.608	13.45
686.933	13.4
687.257	13.29
687.581	13.21
687.905	13.2
688.229	13.18
688.553	13.14
688.877	13.07
689.201	13.01
689.524	12.94
689.848	12.97
690.172	12.92
690.496	12.88
690.819	12.84
691.143	12.79
691.466	12.71
691.79	12.64
692.113	12.61
692.436	12.58
692.76	12.61
693.083	12.52
693.406	12.46
693.729	12.44
694.053	12.4
694.376	12.41
694.699	12.43
695.022	12.5
695.344	12.58
695.667	12.82
695.99	12.97
696.313	13.01
696.636	13.03
696.958	13.1
697.281	13.08
697.604	13.14
697.926	13.17
698.249	13.18
698.571	13.19
698.893	13.17
699.216	13.14
699.538	13.11
699.86	13.17
700.182	13.12
700.504	13.13
700.827	13.17
701.149	13.17
701.471	13.07
701.793	12.93
702.114	12.81
702.436	12.5
702.758	12.3
703.08	12.18
703.401	11.98
703.723	11.77
704.045	11.63
704.366	11.55
704.688	11.47
705.009	11.46
705.331	11.47
705.652	11.42
705.973	11.42
706.294	11.43
706.616	11.43
706.937	11.49
707.258	11.46
707.579	11.45
707.9	11.46
708.221	11.57
708.542	11.61
708.863	11.64
709.183	11.61
709.504	11.62
709.825	11.67
710.145	11.75
710.466	11.78
710.787	11.8
711.107	11.77
711.427	11.78
711.748	11.78
712.068	11.72
712.388	11.8
712.709	11.82
713.029	11.8
713.349	11.74
713.669	11.75
713.989	11.83
714.309	11.83
714.629	11.78
714.949	11.67
715.269	11.59
715.589	11.66
715.908	11.72
716.228	11.78
716.548	11.79
716.867	11.8
717.187	11.84
717.506	11.97
717.826	12.06
718.145	12.05
718.465	12.09
718.784	12.17
719.103	12.17
719.422	12.19
719.741	12.12
720.061	12.21
720.38	12.32
720.699	12.28
721.018	12.31
721.336	12.45
721.655	12.62
721.974	12.85
722.293	12.89
722.612	12.95
722.93	13.03
723.249	13.15
723.567	13.35
723.886	13.45
724.204	13.46
724.523	13.48
724.841	13.58
725.159	13.78
725.477	13.88
725.796	14.02
726.114	14.27
726.432	14.48
726.75	14.61
727.068	14.61
727.386	14.79
727.704	14.95
728.022	15.09
728.339	15.13
728.657	15.17
728.975	15.3
729.292	15.41
729.61	15.49
729.928	15.59
730.245	15.59
730.562	15.66
730.88	15.78
731.197	15.93
731.514	16.12
731.832	16.11
732.149	16.26
732.466	16.36
732.783	16.35
733.1	16.48
733.417	16.66
733.734	16.84
734.051	16.87
734.368	16.93
734.684	17.02
735.001	17.16
735.318	17.36
735.634	17.48
735.951	17.62
736.268	17.84
736.584	17.97
736.9	18.24
737.217	18.43
737.533	18.51
737.849	18.64
738.166	18.73
738.482	18.85
738.798	18.95
739.114	19.06
739.43	19.23
739.746	19.27
740.062	19.25
740.378	19.32
740.693	19.4
741.009	19.58
741.325	19.81
741.641	19.93
741.956	20.05
742.272	20.16
742.587	20.38
742.903	20.5
743.218	20.66
743.533	20.68
743.849	20.64
744.164	20.73
744.479	20.73
744.794	20.77
745.109	21.01
745.424	21.17
745.739	21.22
746.054	21.33
746.369	21.4
746.684	21.42
746.999	21.47
747.313	21.55
747.628	21.53
747.943	21.56
748.257	21.65
748.572	21.65
748.886	21.65
749.201	21.48
749.515	21.48
749.829	21.51
750.144	21.5
750.458	21.7
750.772	21.84
751.086	21.91
751.4	21.97
751.714	21.87
752.028	21.9
752.342	22
752.656	22.02
752.97	22.09
753.284	22.37
753.597	22.53
753.911	22.67
754.225	22.91
754.538	22.9
754.852	22.95
755.165	23.01
755.478	23.06
755.792	23.23
756.105	23.25
756.418	23.23
756.731	23.24
757.045	23.34
757.358	23.49
757.671	23.61
757.984	23.67
758.297	23.81
758.609	23.8
758.922	23.89
759.235	23.86
759.548	23.91
759.86	23.77
760.173	23.62
760.486	23.33
760.798	23.08
761.111	22.92
761.423	22.86
761.735	22.84
762.048	22.88
762.36	22.94
762.672	23.03
762.984	23.2
763.296	23.36
763.608	23.41
763.92	23.42
764.232	23.53
764.544	23.59
764.856	23.61
765.168	23.65
765.48	23.7
765.791	23.86
766.103	23.96
766.414	24.12
766.726	24.47
767.037	24.83
767.349	25.18
767.66	25.54
767.972	25.96
768.283	26.36
768.594	26.7
768.905	27.07
769.216	27.3
769.527	27.54
769.838	27.65
770.149	27.91
770.46	28.18
770.771	28.34
771.082	28.69
771.393	28.96
771.703	29.24
772.014	29.41
772.324	29.51
772.635	29.82
772.945	30.02
773.256	30
773.566	30.36
773.877	30.53
774.187	30.71
774.497	30.72
774.807	30.75
775.117	30.8
775.427	30.95
775.737	31.07
776.047	31.01
776.357	31.09
776.667	31.19
776.977	31.21
777.287	31.37
777.596	31.05
777.906	31.04
778.216	31.11
778.525	31
778.835	31.19
779.144	31.41
779.453	31.42
779.763	31.33
780.072	31.41
780.381	31.5
780.69	31.7
781	31.81
781.309	32.03
781.618	32.23
781.927	32.24
782.235	32.27
782.544	32.56
782.853	32.83
783.162	32.92
783.471	33
783.779	33
784.088	33.26
784.396	33.46
784.705	33.33
785.013	33.39
785.322	33.39
785.63	33.2
785.938	33.11
786.246	33.25
786.554	33.21
786.863	33.39
787.171	33.6
787.479	33.78
787.787	33.67
788.094	33.58
788.402	33.55
788.71	33.81
789.018	33.63
789.326	33.63
789.633	33.67
789.941	33.76
790.248	33.75
790.556	34.06
790.863	34.23
791.171	34.59
791.478	34.92
791.785	35.1
792.092	35.32
792.399	35.67
792.707	36.04
793.014	36.06
793.321	35.95
793.628	35.72
793.934	35.52
794.241	35.24
794.548	35.2
794.855	35.09
795.161	34.69
795.468	34.51
795.775	34.55
796.081	34.59
796.388	34.73
796.694	34.87
797	34.73
797.307	34.48
797.613	34.39
797.919	34.25
798.225	34.19
798.531	34.1
798.837	34.25
799.143	34.19
799.449	34.41
799.755	34.56
800.061	34.72
800.367	34.75
800.672	35.31
800.978	35.71
801.284	36.08
801.589	36.56
801.895	37.16
802.2	37.32
802.506	36.95
802.811	36.87
803.116	36.95
803.421	37.06
803.727	37.56
804.032	37.73
804.337	37.79
804.642	37.72
804.947	37.77
805.252	37.6
805.556	37.79
805.861	37.84
806.166	38
806.471	38.09
806.775	38.48
807.08	38.57
807.384	38.53
807.689	38.44
807.993	38.3
808.298	38.29
808.602	38.25
808.906	38.96
809.211	39.17
809.515	39.31
809.819	39.55
810.123	39.3
810.427	39.22
810.731	39.38
811.035	39.54
811.338	39.82
811.642	40.15
811.946	40.17
812.25	40.19
812.553	40.07
812.857	39.84
813.16	39.76
813.464	39.85
813.767	40.02
814.07	40.21
814.374	40.8
814.677	40.87
814.98	40.91
815.283	40.72
815.586	40.54
815.889	40.23
816.192	40.1
816.495	39.93
816.798	40.08
817.101	39.7
817.404	39.17
817.706	38.67
818.009	37.85
818.312	36.91
818.614	35.77
818.917	34.27
819.219	32.4
819.521	30.24
819.824	28.48
820.126	26.94
820.428	25.9
820.73	24.92
821.032	24.32
821.334	23.95
821.636	23.7
821.938	23.53
822.24	23.45
822.542	23.42
822.844	23.4
823.145	23.27
823.447	23.18
823.749	23.12
824.05	22.93
824.352	22.82
824.653	22.74
824.955	22.71
825.256	22.73
825.557	22.8
825.858	23.04
826.16	23.31
826.461	23.77
826.762	24.25
827.063	24.78
827.364	25.25
827.665	25.65
827.965	26.08
828.266	26.52
828.567	26.91
828.868	27.03
829.168	27.17
829.469	27.4
829.769	27.72
830.07	27.83
830.37	28.27
830.67	28.95
830.971	29.55
831.271	30.06
831.571	30.27
831.871	30.74
832.171	31.03
832.471	31.23
832.771	31.28
833.071	31.35
833.371	31.48
833.671	31.75
833.971	32.01
834.27	32.09
834.57	31.99
834.869	31.83
835.169	32.03
835.468	32.34
835.768	32.32
836.067	32.49
836.367	33.04
836.666	33.55
836.965	33.84
837.264	34.41
837.563	35.35
837.862	36.63
838.161	37.84
838.46	38.75
838.759	39.41
839.058	40.54
839.356	41.68
839.655	42.6
839.954	43.19
840.252	43.7
840.551	44.16
840.849	44.44
841.148	45.06
841.446	45.08
841.744	45.27
842.043	46.28
842.341	46.95
842.639	47.44
842.937	47.73
843.235	48.46
843.533	49.1
843.831	49.52
844.129	50
844.427	50.52
844.724	51.7
845.022	53.05
845.32	54.07
845.617	54.73
845.915	56.11
846.212	57.45
846.51	58.44
846.807	59.49
847.104	60.48
847.402	60.24
847.699	60.29
847.996	60.42
848.293	60.37
848.59	60.06
848.887	59.55
849.184	60.18
849.481	60.23
849.778	59.9
850.074	59.5
850.371	59.43
850.668	58.97
850.964	58.24
851.261	58.18
851.557	57.67
851.854	57.41
852.15	56.97
852.446	56.6
852.743	55.83
853.039	54.85
853.335	55.38
853.631	56.52
853.927	57.11
854.223	56.76
854.519	56.81
854.815	57.38
855.111	57.71
855.406	56.92
855.702	56.93
855.998	57.5
856.293	57.22
856.589	56.84
856.884	57.28
857.18	57.75
857.475	58.04
857.77	57.86
858.066	58.2
858.361	58.47
858.656	58.63
858.951	59.65
859.246	61.27
859.541	61.22
859.836	60.59
860.131	61.11
860.426	62.33
860.72	62.86
861.015	63.3
861.31	63.78
861.604	63.98
861.899	63.42
862.193	63.2
862.487	63.95
862.782	65.65
863.076	66.33
863.37	67.45
863.664	67.53
863.959	67.61
864.253	66.75
864.547	66.82
864.841	66.99
865.135	66.89
865.428	65.65
865.722	65.38
866.016	65.28
866.31	64.4
866.603	63.64
866.897	62.85
867.19	61.88
867.484	61.87
867.777	62.28
868.07	62.34
868.364	62.65
868.657	62.42
868.95	60.66
869.243	60.1
869.536	59.55
869.829	59.38
870.122	60.41
870.415	61.52
870.708	61.09
871	60.74
871.293	60.4
871.586	60.48
871.878	60.42
872.171	60.45
872.463	59.91
872.756	59.4
873.048	59.69
873.341	59.93
873.633	59.81
873.925	59.37
874.217	59.43
874.509	58.52
874.801	58.21
875.093	59.24
875.385	58.89
875.677	58.29
875.969	57.69
