Data from pcis_p_h3_p1_Reflection_4.txt Node
Date: Wed Jul 12 17:51:36 ART 2017
User: rodoncho
Spectrometer: USB2E3644
Trigger mode: 4
Integration Time (sec): 6.000000E-2
Scans to average: 10
Electric dark correction enabled: true
Nonlinearity correction enabled: false
Boxcar width: 10
XAxis mode: Wavelengths
Number of Pixels in Spectrum: 2048
>>>>>Begin Spectral Data<<<<<
178.315	180
178.696	-237.5
179.076	-205.26
179.457	-156.52
179.838	-127.27
180.218	-1050
180.599	1275
180.979	290
181.36	67.24
181.74	41.25
182.121	-43.75
182.501	78.81
182.881	62.26
183.262	48.81
183.642	-0
184.022	-142.86
184.402	-620
184.783	593.33
185.163	425.93
185.543	372.09
185.923	309.52
186.303	284.42
186.683	218.87
187.063	211.9
187.443	183.89
187.823	170.59
188.203	171.81
188.583	164.95
188.963	167.63
189.343	160.27
189.723	152.84
190.102	150.14
190.482	148.68
190.862	147.1
191.242	151.65
191.621	156.25
192.001	158.61
192.38	151.78
192.76	149.32
193.14	146.9
193.519	146.69
193.898	144.03
194.278	141.65
194.657	141.43
195.037	140.85
195.416	148.24
195.795	150.49
196.175	151.86
196.554	149.69
196.933	149.32
197.312	146.78
197.692	147.83
198.071	146.06
198.45	142.98
198.829	142.95
199.208	138.42
199.587	137.06
199.966	134.71
200.345	133.06
200.724	131.21
201.103	128.13
201.482	125.46
201.86	125.65
202.239	125.29
202.618	124.41
202.997	124.25
203.375	122.41
203.754	121.03
204.133	119.94
204.511	121.75
204.89	121.57
205.269	120.96
205.647	119.49
206.026	117.8
206.404	116.31
206.782	113.08
207.161	112.79
207.539	111.54
207.918	110.39
208.296	110.73
208.674	112.98
209.052	115.71
209.431	118.2
209.809	118.34
210.187	119.08
210.565	120.36
210.943	121.29
211.321	120.78
211.699	122.26
212.077	123.14
212.455	121.42
212.833	120.51
213.211	119.48
213.589	119.47
213.967	120.68
214.345	121.88
214.722	125.86
215.1	125.88
215.478	127.18
215.855	128.56
216.233	129.71
216.611	129.18
216.988	126.63
217.366	124.49
217.743	124.77
218.121	125.97
218.498	125.71
218.876	124.77
219.253	126.16
219.631	125.08
220.008	125.93
220.385	127.6
220.762	129.56
221.14	132.94
221.517	133.42
221.894	134.87
222.271	135.26
222.648	133.39
223.025	133.3
223.402	134.53
223.78	135.61
224.157	137.12
224.533	136.28
224.91	137.77
225.287	138.22
225.664	138.12
226.041	136.03
226.418	134.2
226.795	133.83
227.171	132.38
227.548	133.06
227.925	131.41
228.301	129.98
228.678	129.15
229.055	128.45
229.431	128.12
229.808	127.1
230.184	128
230.561	129.49
230.937	130.53
231.313	130.03
231.69	129.83
232.066	126.91
232.442	127.3
232.819	127.11
233.195	126.98
233.571	127.27
233.947	129.42
234.323	131.01
234.699	132.99
235.075	133.83
235.451	133.16
235.827	135.46
236.203	136.51
236.579	137.39
236.955	137.92
237.331	139.81
237.707	144.67
238.083	147.1
238.459	151.58
238.834	157.72
239.21	161.66
239.586	166.37
239.961	173.11
240.337	176.24
240.713	181.12
241.088	185.94
241.464	188.89
241.839	191.5
242.215	198.45
242.59	211.19
242.965	238.37
243.341	293.57
243.716	363.71
244.091	484.08
244.467	631.5
244.842	860.61
245.217	1407.5
245.592	1692
245.967	2226.32
246.343	2132.91
246.718	2024.1
247.093	2293.15
247.468	2402.9
247.843	3613.04
248.218	-83400
248.593	-2845.76
248.967	-1352.42
249.342	-1043.21
249.717	-957.3
250.092	-946.67
250.467	-1164.83
250.841	-2111.25
251.216	5841.38
251.591	1356.8
251.965	801.87
252.34	628.57
252.714	558.12
253.089	482.07
253.463	477.93
253.838	482.25
254.212	494.81
254.587	545.4
254.961	660.62
255.335	1188.28
255.71	-9533.33
256.084	-836.76
256.458	-412.32
256.832	-285.27
257.206	-233.67
257.581	-209.09
257.955	-195.84
258.329	-181.38
258.703	-169.3
259.077	-159.21
259.451	-152.55
259.825	-141.17
260.199	-134.28
260.572	-131.02
260.946	-126.13
261.32	-125.65
261.694	-120.65
262.068	-117.1
262.441	-116.11
262.815	-115.62
263.189	-117.5
263.562	-124.41
263.936	-140.47
264.309	-167.92
264.683	-198.11
265.056	-221.92
265.43	-234.97
265.803	-234.36
266.176	-229.73
266.55	-222.44
266.923	-215.17
267.296	-209.99
267.67	-202.31
268.043	-189.23
268.416	-171.61
268.789	-155.83
269.162	-136.65
269.535	-127.23
269.908	-121.98
270.281	-117.95
270.654	-119.15
271.027	-121.86
271.4	-124.76
271.773	-124.19
272.146	-120.64
272.519	-115.25
272.891	-111.5
273.264	-109.84
273.637	-108.02
274.01	-108
274.382	-109.03
274.755	-107.79
275.127	-104.45
275.5	-105.41
275.872	-104.67
276.245	-106.56
276.617	-109.1
276.99	-113.32
277.362	-117.63
277.734	-118.65
278.107	-116.58
278.479	-109.14
278.851	-104.47
279.223	-100
279.596	-97.99
279.968	-98.34
280.34	-99.49
280.712	-97.16
281.084	-90.58
281.456	-82.8
281.828	-76.71
282.2	-70.45
282.572	-65.82
282.944	-64.1
283.315	-62.58
283.687	-61.84
284.059	-61.24
284.431	-60.43
284.802	-60.02
285.174	-58.3
285.546	-56.81
285.917	-56.4
286.289	-55.56
286.66	-53.93
287.032	-53.8
287.403	-52.82
287.775	-52.21
288.146	-51.43
288.518	-51.35
288.889	-51.9
289.26	-53.7
289.632	-54.7
290.003	-56.28
290.374	-58.23
290.745	-58.22
291.116	-57.4
291.487	-56.46
291.858	-55.29
292.229	-54.85
292.6	-52.97
292.971	-51.35
293.342	-49.29
293.713	-46.74
294.084	-45.12
294.455	-44.45
294.826	-42.82
295.196	-42.57
295.567	-41.99
295.938	-41.44
296.308	-41.28
296.679	-40.2
297.05	-39.35
297.42	-38.65
297.791	-37.54
298.161	-36.43
298.532	-35.73
298.902	-35.48
299.272	-34.78
299.643	-33.73
300.013	-32.74
300.383	-32.54
300.754	-32.23
301.124	-32.75
301.494	-32.98
301.864	-33.25
302.234	-33.51
302.604	-33.94
302.974	-33.52
303.344	-32.95
303.714	-32.99
304.084	-32.1
304.454	-32.02
304.824	-31.1
305.194	-30.21
305.563	-29.36
305.933	-27.88
306.303	-26.74
306.673	-25.97
307.042	-25.33
307.412	-24.49
307.781	-23.32
308.151	-22.36
308.521	-21.48
308.89	-20.65
309.259	-20
309.629	-19.24
309.998	-18.67
310.368	-18.04
310.737	-17.62
311.106	-17.3
311.475	-16.19
311.845	-15.66
312.214	-15.15
312.583	-14.9
312.952	-14.36
313.321	-14.38
313.69	-14.5
314.059	-14.65
314.428	-14.58
314.797	-14.84
315.166	-15.73
315.535	-16.24
315.904	-16.5
316.272	-16.85
316.641	-16.9
317.01	-17.19
317.379	-17.23
317.747	-17.04
318.116	-16.82
318.484	-16.47
318.853	-16.14
319.221	-16.22
319.59	-15.98
319.958	-15.94
320.327	-15.61
320.695	-15.53
321.063	-14.91
321.432	-14.36
321.8	-13.8
322.168	-12.72
322.536	-11.36
322.905	-9.99
323.273	-9.57
323.641	-9.1
324.009	-8.97
324.377	-8.56
324.745	-8.09
325.113	-7.87
325.481	-7.39
325.849	-6.85
326.216	-6.36
326.584	-5.8
326.952	-5.55
327.32	-5.19
327.687	-4.76
328.055	-4.28
328.423	-3.99
328.79	-3.73
329.158	-3.64
329.525	-3.21
329.893	-3.05
330.26	-2.96
330.628	-2.94
330.995	-2.34
331.362	-1.89
331.73	-1.45
332.097	-1.08
332.464	-0.86
332.831	-0.62
333.199	-0.36
333.566	-0.05
333.933	0.01
334.3	-0.02
334.667	0.12
335.034	0.35
335.401	0.54
335.768	0.5
336.135	0.68
336.502	0.94
336.868	1.22
337.235	1.39
337.602	1.56
337.969	1.66
338.335	1.92
338.702	1.96
339.069	2.04
339.435	2.24
339.802	2.31
340.168	2.55
340.535	2.79
340.901	2.91
341.267	3.02
341.634	3.31
342	3.66
342.366	4
342.733	4.12
343.099	4.33
343.465	4.58
343.831	4.81
344.197	4.87
344.563	4.99
344.929	5.01
345.295	5.13
345.661	5.28
346.027	5.42
346.393	5.6
346.759	5.69
347.125	5.79
347.491	5.93
347.856	6.1
348.222	6.17
348.588	6.25
348.953	6.3
349.319	6.33
349.684	6.29
350.05	6.27
350.415	6.39
350.781	6.5
351.146	6.6
351.512	6.58
351.877	6.79
352.242	6.93
352.608	7.06
352.973	7.06
353.338	7.02
353.703	7.07
354.068	7.23
354.433	7.33
354.798	7.44
355.164	7.57
355.528	7.51
355.893	7.52
356.258	7.67
356.623	7.67
356.988	7.76
357.353	7.96
357.718	8.21
358.082	8.29
358.447	8.24
358.812	8.22
359.176	8.38
359.541	8.35
359.905	8.39
360.27	8.51
360.634	8.66
360.999	8.76
361.363	8.78
361.728	8.75
362.092	8.76
362.456	8.71
362.821	8.76
363.185	8.9
363.549	9.01
363.913	9.02
364.277	9.11
364.641	9.15
365.005	9.16
365.369	9.09
365.733	9.12
366.097	9.3
366.461	9.38
366.825	9.42
367.189	9.54
367.553	9.61
367.916	9.62
368.28	9.64
368.644	9.84
369.007	9.95
369.371	10.05
369.734	10.18
370.098	10.41
370.461	10.46
370.825	10.51
371.188	10.64
371.552	10.76
371.915	10.89
372.278	11.09
372.642	11.22
373.005	11.33
373.368	11.37
373.731	11.45
374.094	11.54
374.457	11.52
374.82	11.52
375.183	11.56
375.546	11.62
375.909	11.7
376.272	11.66
376.635	11.65
376.998	11.74
377.361	11.81
377.723	11.8
378.086	11.83
378.449	11.89
378.811	11.94
379.174	11.97
379.537	11.94
379.899	11.95
380.262	11.91
380.624	11.88
380.987	11.91
381.349	11.92
381.711	11.93
382.074	11.99
382.436	12.1
382.798	12.12
383.16	12.14
383.522	12.11
383.884	12.22
384.247	12.33
384.609	12.35
384.971	12.33
385.333	12.38
385.695	12.43
386.056	12.41
386.418	12.39
386.78	12.38
387.142	12.4
387.504	12.35
387.865	12.34
388.227	12.32
388.589	12.35
388.95	12.33
389.312	12.32
389.673	12.34
390.035	12.31
390.396	12.3
390.758	12.27
391.119	12.29
391.48	12.24
391.842	12.23
392.203	12.13
392.564	12.1
392.925	12.01
393.286	11.94
393.648	11.9
394.009	11.89
394.37	11.85
394.731	11.84
395.092	11.78
395.452	11.76
395.813	11.76
396.174	11.72
396.535	11.67
396.896	11.63
397.257	11.55
397.617	11.53
397.978	11.53
398.338	11.56
398.699	11.53
399.06	11.46
399.42	11.38
399.781	11.39
400.141	11.35
400.501	11.37
400.862	11.38
401.222	11.39
401.582	11.38
401.943	11.35
402.303	11.31
402.663	11.32
403.023	11.35
403.383	11.33
403.743	11.32
404.103	11.33
404.463	11.37
404.823	11.41
405.183	11.41
405.543	11.41
405.903	11.39
406.262	11.39
406.622	11.4
406.982	11.41
407.342	11.4
407.701	11.42
408.061	11.4
408.42	11.4
408.78	11.36
409.139	11.32
409.499	11.34
409.858	11.37
410.217	11.37
410.577	11.34
410.936	11.37
411.295	11.35
411.655	11.31
412.014	11.24
412.373	11.2
412.732	11.12
413.091	11.03
413.45	10.93
413.809	10.87
414.168	10.78
414.527	10.68
414.886	10.58
415.245	10.51
415.603	10.43
415.962	10.32
416.321	10.23
416.679	10.13
417.038	10.01
417.397	9.89
417.755	9.78
418.114	9.68
418.472	9.58
418.831	9.51
419.189	9.44
419.547	9.37
419.906	9.3
420.264	9.22
420.622	9.16
420.981	9.11
421.339	9.04
421.697	8.98
422.055	8.93
422.413	8.89
422.771	8.85
423.129	8.82
423.487	8.81
423.845	8.81
424.203	8.8
424.56	8.78
424.918	8.78
425.276	8.8
425.634	8.82
425.991	8.81
426.349	8.82
426.707	8.83
427.064	8.83
427.422	8.86
427.779	8.88
428.137	8.91
428.494	8.96
428.851	9
429.209	9.05
429.566	9.09
429.923	9.12
430.28	9.1
430.637	9.13
430.995	9.15
431.352	9.15
431.709	9.21
432.066	9.25
432.423	9.29
432.78	9.31
433.137	9.33
433.493	9.36
433.85	9.4
434.207	9.41
434.564	9.43
434.92	9.46
435.277	9.48
435.634	9.5
435.99	9.51
436.347	9.54
436.703	9.55
437.06	9.58
437.416	9.62
437.773	9.64
438.129	9.63
438.485	9.63
438.841	9.64
439.198	9.63
439.554	9.61
439.91	9.61
440.266	9.6
440.622	9.56
440.978	9.54
441.334	9.48
441.69	9.44
442.046	9.37
442.402	9.29
442.758	9.2
443.113	9.12
443.469	9.04
443.825	8.96
444.181	8.9
444.536	8.84
444.892	8.78
445.247	8.74
445.603	8.69
445.958	8.65
446.314	8.6
446.669	8.54
447.025	8.49
447.38	8.42
447.735	8.35
448.09	8.3
448.446	8.25
448.801	8.21
449.156	8.16
449.511	8.13
449.866	8.11
450.221	8.12
450.576	8.11
450.931	8.11
451.286	8.1
451.641	8.09
451.995	8.09
452.35	8.08
452.705	8.07
453.06	8.08
453.414	8.1
453.769	8.11
454.123	8.11
454.478	8.13
454.832	8.15
455.187	8.17
455.541	8.18
455.896	8.19
456.25	8.2
456.604	8.23
456.958	8.27
457.313	8.28
457.667	8.31
458.021	8.37
458.375	8.43
458.729	8.51
459.083	8.59
459.437	8.65
459.791	8.72
460.145	8.78
460.499	8.86
460.852	8.92
461.206	8.99
461.56	9.09
461.914	9.19
462.267	9.29
462.621	9.42
462.974	9.59
463.328	9.78
463.681	9.97
464.035	10.16
464.388	10.35
464.742	10.53
465.095	10.7
465.448	10.86
465.801	10.99
466.155	11.1
466.508	11.22
466.861	11.31
467.214	11.41
467.567	11.54
467.92	11.62
468.273	11.73
468.626	11.84
468.979	11.91
469.332	11.98
469.684	12.06
470.037	12.12
470.39	12.16
470.743	12.22
471.095	12.26
471.448	12.33
471.8	12.36
472.153	12.37
472.505	12.36
472.858	12.33
473.21	12.32
473.562	12.26
473.915	12.19
474.267	12.13
474.619	12.04
474.971	11.92
475.324	11.83
475.676	11.71
476.028	11.6
476.38	11.49
476.732	11.36
477.084	11.22
477.436	11.07
477.787	10.91
478.139	10.72
478.491	10.57
478.843	10.38
479.195	10.18
479.546	9.94
479.898	9.66
480.249	9.39
480.601	9.14
480.952	8.97
481.304	8.86
481.655	8.79
482.007	8.72
482.358	8.67
482.709	8.62
483.061	8.57
483.412	8.53
483.763	8.48
484.114	8.45
484.465	8.42
484.816	8.41
485.167	8.41
485.518	8.41
485.869	8.42
486.22	8.44
486.571	8.46
486.922	8.5
487.272	8.57
487.623	8.66
487.974	8.79
488.324	8.92
488.675	9.04
489.025	9.14
489.376	9.25
489.726	9.36
490.077	9.48
490.427	9.6
490.778	9.74
491.128	9.92
491.478	10.12
491.828	10.34
492.179	10.57
492.529	10.8
492.879	11.04
493.229	11.27
493.579	11.48
493.929	11.69
494.279	11.91
494.629	12.16
494.979	12.47
495.328	12.81
495.678	13.23
496.028	13.6
496.378	13.96
496.727	14.3
497.077	14.62
497.426	14.92
497.776	15.21
498.125	15.48
498.475	15.75
498.824	16
499.174	16.26
499.523	16.51
499.872	16.77
500.221	17.05
500.571	17.33
500.92	17.64
501.269	17.94
501.618	18.21
501.967	18.51
502.316	18.75
502.665	19.02
503.014	19.22
503.363	19.46
503.711	19.66
504.06	19.83
504.409	19.98
504.758	20.15
505.106	20.29
505.455	20.44
505.803	20.55
506.152	20.66
506.5	20.76
506.849	20.86
507.197	20.95
507.546	21.02
507.894	21.1
508.242	21.17
508.59	21.23
508.939	21.29
509.287	21.32
509.635	21.38
509.983	21.42
510.331	21.46
510.679	21.51
511.027	21.54
511.375	21.6
511.723	21.64
512.07	21.65
512.418	21.69
512.766	21.72
513.114	21.75
513.461	21.76
513.809	21.77
514.156	21.79
514.504	21.8
514.851	21.78
515.199	21.74
515.546	21.71
515.893	21.7
516.241	21.68
516.588	21.66
516.935	21.66
517.282	21.64
517.63	21.63
517.977	21.6
518.324	21.57
518.671	21.56
519.018	21.54
519.365	21.53
519.711	21.49
520.058	21.46
520.405	21.42
520.752	21.41
521.099	21.41
521.445	21.37
521.792	21.31
522.138	21.28
522.485	21.25
522.832	21.21
523.178	21.17
523.524	21.13
523.871	21.08
524.217	21
524.563	20.92
524.91	20.84
525.256	20.75
525.602	20.66
525.948	20.58
526.294	20.52
526.64	20.48
526.986	20.45
527.332	20.42
527.678	20.39
528.024	20.35
528.37	20.3
528.716	20.26
529.061	20.24
529.407	20.2
529.753	20.14
530.098	20.09
530.444	20.04
530.789	20.01
531.135	19.98
531.48	19.95
531.826	19.92
532.171	19.89
532.516	19.83
532.862	19.78
533.207	19.74
533.552	19.7
533.897	19.66
534.242	19.62
534.587	19.58
534.932	19.57
535.277	19.54
535.622	19.5
535.967	19.49
536.312	19.44
536.657	19.41
537.001	19.36
537.346	19.32
537.691	19.25
538.035	19.17
538.38	19.09
538.724	19.02
539.069	18.96
539.413	18.9
539.758	18.88
540.102	18.85
540.446	18.81
540.791	18.77
541.135	18.73
541.479	18.7
541.823	18.65
542.167	18.6
542.512	18.56
542.856	18.51
543.2	18.46
543.543	18.42
543.887	18.38
544.231	18.36
544.575	18.32
544.919	18.28
545.262	18.25
545.606	18.2
545.95	18.15
546.293	18.11
546.637	18.07
546.98	18.02
547.324	17.97
547.667	17.92
548.011	17.85
548.354	17.78
548.697	17.71
549.04	17.68
549.384	17.61
549.727	17.55
550.07	17.51
550.413	17.47
550.756	17.42
551.099	17.36
551.442	17.33
551.785	17.27
552.128	17.21
552.47	17.16
552.813	17.12
553.156	17.06
553.499	16.99
553.841	16.95
554.184	16.89
554.526	16.85
554.869	16.78
555.211	16.74
555.554	16.72
555.896	16.68
556.238	16.61
556.581	16.56
556.923	16.51
557.265	16.45
557.607	16.35
557.949	16.3
558.291	16.23
558.633	16.16
558.975	16.1
559.317	16.03
559.659	15.94
560.001	15.9
560.343	15.85
560.685	15.79
561.026	15.66
561.368	15.59
561.71	15.48
562.051	15.43
562.393	15.39
562.734	15.31
563.076	15.22
563.417	15.16
563.759	15.1
564.1	15.03
564.441	15.01
564.782	14.95
565.124	14.87
565.465	14.84
565.806	14.79
566.147	14.76
566.488	14.7
566.829	14.65
567.17	14.6
567.511	14.55
567.851	14.52
568.192	14.51
568.533	14.48
568.874	14.46
569.214	14.42
569.555	14.34
569.895	14.29
570.236	14.26
570.576	14.21
570.917	14.17
571.257	14.13
571.598	14.06
571.938	14.05
572.278	14.02
572.618	13.99
572.959	13.93
573.299	13.85
573.639	13.84
573.979	13.78
574.319	13.75
574.659	13.69
574.999	13.64
575.339	13.58
575.678	13.51
576.018	13.43
576.358	13.37
576.698	13.32
577.037	13.28
577.377	13.22
577.716	13.15
578.056	13.08
578.395	13.03
578.735	12.96
579.074	12.88
579.413	12.8
579.753	12.71
580.092	12.69
580.431	12.66
580.77	12.61
581.109	12.58
581.448	12.53
581.787	12.49
582.126	12.41
582.465	12.37
582.804	12.34
583.143	12.32
583.482	12.25
583.82	12.2
584.159	12.17
584.498	12.11
584.836	12.1
585.175	12.08
585.514	12.01
585.852	12.03
586.19	12.02
586.529	12
586.867	12.03
587.205	11.98
587.544	11.95
587.882	11.88
588.22	11.83
588.558	11.76
588.896	11.76
589.234	11.77
589.572	11.74
589.91	11.72
590.248	11.68
590.586	11.69
590.924	11.67
591.262	11.64
591.599	11.65
591.937	11.63
592.275	11.58
592.612	11.55
592.95	11.48
593.287	11.44
593.625	11.45
593.962	11.42
594.299	11.43
594.637	11.42
594.974	11.44
595.311	11.46
595.648	11.46
595.985	11.44
596.322	11.42
596.659	11.41
596.996	11.37
597.333	11.34
597.67	11.29
598.007	11.3
598.344	11.28
598.681	11.22
599.017	11.18
599.354	11.18
599.691	11.17
600.027	11.15
600.364	11.12
600.7	11.09
601.037	11.04
601.373	11
601.71	11.01
602.046	10.98
602.382	10.97
602.718	10.97
603.054	10.95
603.391	10.91
603.727	10.89
604.063	10.89
604.399	10.88
604.735	10.86
605.071	10.85
605.406	10.83
605.742	10.85
606.078	10.87
606.414	10.85
606.749	10.85
607.085	10.84
607.421	10.83
607.756	10.81
608.092	10.79
608.427	10.74
608.762	10.69
609.098	10.63
609.433	10.57
609.768	10.5
610.104	10.46
610.439	10.46
610.774	10.44
611.109	10.41
611.444	10.4
611.779	10.4
612.114	10.37
612.449	10.32
612.784	10.25
613.118	10.19
613.453	10.13
613.788	10.04
614.123	10
614.457	9.92
614.792	9.83
615.126	9.78
615.461	9.72
615.795	9.64
616.13	9.66
616.464	9.65
616.798	9.63
617.132	9.64
617.467	9.61
617.801	9.57
618.135	9.53
618.469	9.5
618.803	9.43
619.137	9.36
619.471	9.36
619.805	9.31
620.139	9.28
620.472	9.28
620.806	9.28
621.14	9.25
621.473	9.25
621.807	9.22
622.141	9.17
622.474	9.14
622.808	9.12
623.141	9.12
623.474	9.14
623.808	9.19
624.141	9.16
624.474	9.15
624.807	9.19
625.141	9.2
625.474	9.18
625.807	9.23
626.14	9.25
626.473	9.25
626.806	9.28
627.138	9.28
627.471	9.28
627.804	9.26
628.137	9.24
628.469	9.24
628.802	9.26
629.135	9.22
629.467	9.25
629.8	9.24
630.132	9.19
630.465	9.16
630.797	9.08
631.129	9.07
631.461	9.07
631.794	9.03
632.126	8.99
632.458	8.97
632.79	8.89
633.122	8.87
633.454	8.86
633.786	8.82
634.118	8.78
634.45	8.78
634.781	8.75
635.113	8.72
635.445	8.7
635.777	8.65
636.108	8.66
636.44	8.6
636.771	8.57
637.103	8.55
637.434	8.52
637.765	8.52
638.097	8.45
638.428	8.38
638.759	8.34
639.09	8.32
639.422	8.32
639.753	8.31
640.084	8.28
640.415	8.26
640.746	8.23
641.077	8.18
641.407	8.11
641.738	8.13
642.069	8.14
642.4	8.11
642.73	8.08
643.061	8.07
643.392	8.13
643.722	8.14
644.053	8.11
644.383	8.09
644.713	8.05
645.044	8.03
645.374	8.03
645.704	7.97
646.034	7.98
646.365	8
646.695	8
647.025	8.01
647.355	7.98
647.685	7.95
648.015	8.05
648.344	8.09
648.674	8.1
649.004	8.1
649.334	8.14
649.663	8.19
649.993	8.21
650.323	8.18
650.652	8.15
650.982	8.15
651.311	8.13
651.64	8.15
651.97	8.13
652.299	8.14
652.628	8.2
652.958	8.19
653.287	8.15
653.616	8.14
653.945	8.1
654.274	8.11
654.603	8.13
654.932	8.07
655.261	8.06
655.589	8.06
655.918	8.12
656.247	8.15
656.576	8.2
656.904	8.24
657.233	8.29
657.561	8.35
657.89	8.38
658.218	8.38
658.547	8.36
658.875	8.45
659.203	8.47
659.532	8.45
659.86	8.46
660.188	8.44
660.516	8.45
660.844	8.46
661.172	8.44
661.5	8.41
661.828	8.37
662.156	8.31
662.484	8.26
662.811	8.17
663.139	8.09
663.467	8.01
663.794	7.92
664.122	7.83
664.45	7.78
664.777	7.67
665.104	7.71
665.432	7.66
665.759	7.54
666.086	7.49
666.414	7.48
666.741	7.44
667.068	7.42
667.395	7.4
667.722	7.43
668.049	7.45
668.376	7.49
668.703	7.53
669.03	7.55
669.357	7.55
669.683	7.57
670.01	7.62
670.337	7.62
670.663	7.62
670.99	7.61
671.317	7.57
671.643	7.62
671.969	7.59
672.296	7.63
672.622	7.62
672.948	7.63
673.275	7.61
673.601	7.61
673.927	7.6
674.253	7.61
674.579	7.57
674.905	7.52
675.231	7.54
675.557	7.56
675.883	7.57
676.209	7.62
676.534	7.65
676.86	7.63
677.186	7.69
677.511	7.74
677.837	7.8
678.162	7.82
678.488	7.84
678.813	7.85
679.139	7.86
679.464	7.91
679.789	7.93
680.114	7.97
680.44	7.99
680.765	8.01
681.09	7.98
681.415	7.96
681.74	7.97
682.065	7.91
682.39	7.88
682.714	7.89
683.039	7.86
683.364	7.86
683.689	7.8
684.013	7.78
684.338	7.73
684.662	7.71
684.987	7.69
685.311	7.67
685.636	7.64
685.96	7.62
686.284	7.53
686.608	7.49
686.933	7.4
687.257	7.31
687.581	7.27
687.905	7.28
688.229	7.32
688.553	7.3
688.877	7.32
689.201	7.35
689.524	7.31
689.848	7.33
690.172	7.29
690.496	7.28
690.819	7.24
691.143	7.19
691.466	7.15
691.79	7.11
692.113	7.09
692.436	7.01
692.76	7
693.083	7.03
693.406	7.02
693.729	7.01
694.053	7.04
694.376	7.06
694.699	7.14
695.022	7.22
695.344	7.32
695.667	7.52
695.99	7.61
696.313	7.7
696.636	7.79
696.958	7.86
697.281	7.89
697.604	7.88
697.926	7.9
698.249	7.92
698.571	7.92
698.893	7.86
699.216	7.84
699.538	7.8
699.86	7.77
700.182	7.77
700.504	7.82
700.827	7.86
701.149	7.84
701.471	7.7
701.793	7.6
702.114	7.47
702.436	7.23
702.758	7
703.08	6.76
703.401	6.43
703.723	6.19
704.045	6.05
704.366	5.94
704.688	5.91
705.009	5.86
705.331	5.93
705.652	6.06
705.973	6.1
706.294	6.09
706.616	6.14
706.937	6.11
707.258	6.1
707.579	6.12
707.9	6.12
708.221	6.27
708.542	6.24
708.863	6.31
709.183	6.34
709.504	6.42
709.825	6.51
710.145	6.61
710.466	6.68
710.787	6.71
711.107	6.81
711.427	6.78
711.748	6.77
712.068	6.69
712.388	6.66
712.709	6.77
713.029	6.86
713.349	6.84
713.669	6.84
713.989	6.88
714.309	6.89
714.629	6.84
714.949	6.73
715.269	6.7
715.589	6.66
715.908	6.65
716.228	6.54
716.548	6.51
716.867	6.56
717.187	6.54
717.506	6.58
717.826	6.55
718.145	6.62
718.465	6.64
718.784	6.77
719.103	6.78
719.422	6.7
719.741	6.65
720.061	6.77
720.38	6.87
720.699	6.94
721.018	7.03
721.336	7.15
721.655	7.35
721.974	7.56
722.293	7.76
722.612	7.88
722.93	8.15
723.249	8.38
723.567	8.56
723.886	8.74
724.204	8.85
724.523	8.95
724.841	8.99
725.159	9.05
725.477	9.14
725.796	9.34
726.114	9.52
726.432	9.71
726.75	9.84
727.068	9.97
727.386	10.09
727.704	10.15
728.022	10.26
728.339	10.33
728.657	10.35
728.975	10.43
729.292	10.49
729.61	10.48
729.928	10.52
730.245	10.58
730.562	10.65
730.88	10.81
731.197	11
731.514	11.18
731.832	11.4
732.149	11.51
732.466	11.52
732.783	11.64
733.1	11.83
733.417	11.91
733.734	12.03
734.051	12.07
734.368	12.25
734.684	12.46
735.001	12.6
735.318	12.72
735.634	12.85
735.951	13.04
736.268	13.35
736.584	13.52
736.9	13.69
737.217	13.74
737.533	13.85
737.849	13.89
738.166	13.98
738.482	14.11
738.798	14.36
739.114	14.63
739.43	14.84
739.746	14.9
740.062	15.02
740.378	15.19
740.693	15.41
741.009	15.48
741.325	15.63
741.641	15.74
741.956	16.04
742.272	16.13
742.587	16.37
742.903	16.55
743.218	16.7
743.533	16.73
743.849	17
744.164	17.16
744.479	17.34
744.794	17.49
745.109	17.58
745.424	17.55
745.739	17.51
746.054	17.52
746.369	17.58
746.684	17.7
746.999	17.77
747.313	17.75
747.628	17.81
747.943	17.83
748.257	17.99
748.572	18.01
748.886	18.21
749.201	18.07
749.515	17.91
749.829	18.04
750.144	18.27
750.458	18.42
750.772	18.46
751.086	18.48
751.4	18.45
751.714	18.52
752.028	18.59
752.342	18.66
752.656	18.73
752.97	18.8
753.284	18.86
753.597	18.87
753.911	19.07
754.225	19.2
754.538	19.21
754.852	19.16
755.165	19.17
755.478	19.21
755.792	19.44
756.105	19.66
756.418	19.62
756.731	19.57
757.045	19.63
757.358	19.77
757.671	19.93
757.984	20.11
758.297	20.18
758.609	20.37
758.922	20.48
759.235	20.49
759.548	20.36
759.86	20.35
760.173	20.29
760.486	20.04
760.798	19.96
761.111	19.99
761.423	20
761.735	19.88
762.048	19.75
762.36	19.7
762.672	19.67
762.984	19.74
763.296	19.86
763.608	19.85
763.92	19.87
764.232	19.87
764.544	19.93
764.856	20.02
765.168	20.07
765.48	20.19
765.791	20.37
766.103	20.59
766.414	20.68
766.726	20.78
767.037	21.04
767.349	21.39
767.66	21.68
767.972	22.1
768.283	22.71
768.594	23.13
768.905	23.47
769.216	23.91
769.527	24.32
769.838	24.67
770.149	25
770.46	25.16
770.771	25.42
771.082	25.6
771.393	25.88
771.703	26.09
772.014	26.23
772.324	26.45
772.635	26.64
772.945	27.06
773.256	27.67
773.566	27.88
773.877	27.96
774.187	28
774.497	28
774.807	27.83
775.117	27.87
775.427	27.98
775.737	27.85
776.047	27.72
776.357	27.69
776.667	27.9
776.977	28.22
777.287	28.45
777.596	28.7
777.906	28.48
778.216	28.36
778.525	28.4
778.835	28.27
779.144	28.41
779.453	28.46
779.763	28.43
780.072	28.66
780.381	28.85
780.69	29.26
781	29.64
781.309	30.02
781.618	30.26
781.927	30.75
782.235	31.07
782.544	31.3
782.853	31.51
783.162	31.49
783.471	31.41
783.779	31.33
784.088	31.34
784.396	31.52
784.705	31.65
785.013	31.69
785.322	31.69
785.63	31.54
785.938	31.26
786.246	30.99
786.554	30.82
786.863	30.83
787.171	30.4
787.479	30.16
787.787	29.86
788.094	29.57
788.402	29.19
788.71	29.06
789.018	28.95
789.326	28.9
789.633	29.14
789.941	29.43
790.248	29.57
790.556	29.6
790.863	29.79
791.171	29.88
791.478	30.13
791.785	30.34
792.092	30.71
792.399	31.1
792.707	31.44
793.014	31.75
793.321	31.86
793.628	32.18
793.934	32.28
794.241	32.48
794.548	32.68
794.855	32.54
795.161	32.42
795.468	32.45
795.775	32.43
796.081	32.31
796.388	32.24
796.694	32.2
797	32.05
797.307	31.78
797.613	31.67
797.919	31.75
798.225	31.86
798.531	31.95
798.837	32.02
799.143	32.17
799.449	32.38
799.755	32.5
800.061	32.58
800.367	32.77
800.672	32.98
800.978	33.26
801.284	33.82
801.589	34.31
801.895	34.61
802.2	35.1
802.506	35.18
802.811	35
803.116	35.22
803.421	35.45
803.727	35.9
804.032	36.12
804.337	36.18
804.642	36.26
804.947	36.03
805.252	36.01
805.556	35.83
805.861	35.97
806.166	36.01
806.471	35.97
806.775	36.08
807.08	36.48
807.384	36.42
807.689	36.2
807.993	36.12
808.298	36.52
808.602	36.44
808.906	36.52
809.211	36.77
809.515	36.65
809.819	36.92
810.123	36.91
810.427	37.15
810.731	37.34
811.035	37.54
811.338	37.75
811.642	37.93
811.946	38.29
812.25	38.18
812.553	38.14
812.857	38.49
813.16	38.55
813.464	38.24
813.767	38.61
814.07	38.61
814.374	38.87
814.677	38.68
814.98	38.9
815.283	39.17
815.586	39.27
815.889	39.28
816.192	39.27
816.495	39.08
816.798	38.63
817.101	37.78
817.404	37.02
817.706	36.64
818.009	35.64
818.312	34.69
818.614	33.39
818.917	31.82
819.219	29.75
819.521	27.6
819.824	25.78
820.126	24.26
820.428	23.32
820.73	22.48
821.032	21.9
821.334	21.38
821.636	21.01
821.938	20.79
822.24	20.6
822.542	20.46
822.844	20.44
823.145	20.4
823.447	20.44
823.749	20.38
824.05	20.19
824.352	20.12
824.653	20.11
824.955	20.11
825.256	20.07
825.557	20.2
825.858	20.42
826.16	20.73
826.461	21.24
826.762	21.74
827.063	22.18
827.364	22.67
827.665	23.21
827.965	23.65
828.266	24.18
828.567	24.72
828.868	25.13
829.168	25.38
829.469	25.43
829.769	25.63
830.07	25.96
830.37	26.41
830.67	26.86
830.971	27.22
831.271	27.63
831.571	28.18
831.871	28.44
832.171	28.67
832.471	28.92
832.771	28.77
833.071	28.76
833.371	29.21
833.671	29.6
833.971	29.85
834.27	30.13
834.57	29.94
834.869	29.72
835.169	29.72
835.468	29.68
835.768	29.94
836.067	29.97
836.367	30.26
836.666	30.86
836.965	31.41
837.264	32.07
837.563	33.04
837.862	34.06
838.161	34.91
838.46	35.99
838.759	36.97
839.058	38.13
839.356	39.08
839.655	39.47
839.954	39.8
840.252	40.02
840.551	40.12
840.849	40.64
841.148	41.43
841.446	42.02
841.744	42.55
842.043	43.18
842.341	43.32
842.639	43.48
842.937	43.17
843.235	43.99
843.533	44.69
843.831	45.01
844.129	45.41
844.427	46.59
844.724	47.14
845.022	48.07
845.32	49.07
845.617	49.43
845.915	50.19
846.212	50.85
846.51	51.11
846.807	51.84
847.104	52.09
847.402	52.35
847.699	51.89
847.996	52.33
848.293	52.25
848.59	52.5
848.887	52.87
849.184	53.29
849.481	53.19
849.778	52.83
850.074	53.25
850.371	53.54
850.668	53.6
850.964	54.94
851.261	55.17
851.557	54.45
851.854	54.9
852.15	55
852.446	54.91
852.743	55.01
853.039	54.54
853.335	55.33
853.631	55.76
853.927	56.45
854.223	56.69
854.519	56.78
854.815	57.02
855.111	55.71
855.406	55.6
855.702	55.45
855.998	55.42
856.293	54.57
856.589	54.4
856.884	54.4
857.18	53.31
857.475	52.73
857.77	53.53
858.066	53.46
858.361	54.11
858.656	54.43
858.951	54.87
859.246	55.51
859.541	54.89
859.836	54.25
860.131	53.84
860.426	53.62
860.72	53.87
861.015	53.86
861.31	55.22
861.604	55.08
861.899	55.21
862.193	55.4
862.487	56.62
862.782	57.55
863.076	57.98
863.37	58.51
863.664	58.87
863.959	58.42
864.253	58.27
864.547	57.94
864.841	57.11
865.135	56.57
865.428	55.93
865.722	56.47
866.016	57.36
866.31	58.17
866.603	57.99
866.897	58.11
867.19	57.87
867.484	58.05
867.777	59.51
868.07	59.21
868.364	59.77
868.657	59.24
868.95	58.59
869.243	57.85
869.536	57.23
869.829	58.09
870.122	58.15
870.415	57.39
870.708	56.48
871	55.76
871.293	56.32
871.586	57.14
871.878	55.96
872.171	55.64
872.463	55.22
872.756	54.71
873.048	54.31
873.341	54.49
873.633	54.03
873.925	52.9
874.217	52.9
874.509	52.06
874.801	51.54
875.093	50.97
875.385	50.64
875.677	50.55
875.969	48.37
