Data from pcis_p_h3_p5_Reflection_3.txt Node
Date: Wed Jul 12 17:54:54 ART 2017
User: rodoncho
Spectrometer: USB2E3644
Trigger mode: 4
Integration Time (sec): 6.000000E-2
Scans to average: 10
Electric dark correction enabled: true
Nonlinearity correction enabled: false
Boxcar width: 10
XAxis mode: Wavelengths
Number of Pixels in Spectrum: 2048
>>>>>Begin Spectral Data<<<<<
178.315	222.34
178.696	235.29
179.076	218.1
179.457	371.43
179.838	335
180.218	440
180.599	-77.5
180.979	70
181.36	-217.86
181.74	-100
182.121	28.13
182.501	111.98
182.881	132.14
183.262	162.2
183.642	-618.75
184.022	-97.83
184.402	6.82
184.783	38.75
185.163	52.13
185.543	60.4
185.923	65.23
186.303	68.65
186.683	77.21
187.063	80.54
187.443	88.2
187.823	85.74
188.203	80.1
188.583	76.89
188.963	82.21
189.343	85.23
189.723	84.88
190.102	85.66
190.482	87.89
190.862	89.23
191.242	88.93
191.621	91.49
192.001	96.15
192.38	101.76
192.76	101.48
193.14	98.2
193.519	101.73
193.898	103.39
194.278	102.18
194.657	100.41
195.037	100.88
195.416	99
195.795	99.63
196.175	102.28
196.554	103.15
196.933	105.35
197.312	108.58
197.692	111.24
198.071	108.04
198.45	105.97
198.829	103.59
199.208	101.63
199.587	102.24
199.966	99.22
200.345	97.01
200.724	97.93
201.103	100.25
201.482	98.43
201.86	97.66
202.239	97.97
202.618	98.38
202.997	99.16
203.375	99.55
203.754	98.89
204.133	98.72
204.511	97.69
204.89	95.32
205.269	94.26
205.647	93.33
206.026	95.74
206.404	96.6
206.782	98.13
207.161	100.86
207.539	100.86
207.918	102.12
208.296	104.16
208.674	104.47
209.052	103.33
209.431	103.45
209.809	104.22
210.187	104.18
210.565	104.25
210.943	103.72
211.321	104.02
211.699	102.61
212.077	99.8
212.455	99.23
212.833	99.64
213.211	100.6
213.589	102.27
213.967	101.22
214.345	102.55
214.722	103.23
215.1	101.82
215.478	101.98
215.855	101.68
216.233	100.12
216.611	100.5
216.988	100.97
217.366	101.28
217.743	101.68
218.121	102.48
218.498	102.62
218.876	101.89
219.253	101.5
219.631	102.95
220.008	105.12
220.385	105.02
220.762	104.4
221.14	103.46
221.517	101.66
221.894	100.89
222.271	99.19
222.648	98.01
223.025	99.41
223.402	99.56
223.78	101.09
224.157	102.58
224.533	102.74
224.91	103.65
225.287	104.43
225.664	104.14
226.041	103.41
226.418	102.89
226.795	103.42
227.171	103.76
227.548	104.5
227.925	104.68
228.301	104.79
228.678	106.25
229.055	105.41
229.431	105.93
229.808	106.47
230.184	107.24
230.561	109.03
230.937	109.66
231.313	109.11
231.69	108.52
232.066	108.15
232.442	107.37
232.819	107.74
233.195	107.86
233.571	107.01
233.947	106.08
234.323	106.51
234.699	107.51
235.075	107.43
235.451	108.57
235.827	108.62
236.203	108.72
236.579	108.23
236.955	110.37
237.331	112.53
237.707	115.57
238.083	117.23
238.459	119.77
238.834	124.07
239.21	128.5
239.586	133.18
239.961	138.46
240.337	140.91
240.713	140.03
241.088	140.22
241.464	146.67
241.839	155.07
242.215	163.92
242.59	175.93
242.965	205.61
243.341	247.33
243.716	320.19
244.091	457.43
244.467	718.87
244.842	1145.63
245.217	3384.52
245.592	46783.33
245.967	-5001.79
246.343	-5860.42
246.718	-141950
247.093	-14055
247.468	-8721.88
247.843	-3975.71
248.218	-1551.67
248.593	-905.45
248.967	-622.15
249.342	-562.65
249.717	-587.96
250.092	-619.87
250.467	-783.15
250.841	-1624.71
251.216	3780.26
251.591	1003.1
251.965	607.2
252.34	476.29
252.714	418.96
253.089	377.68
253.463	369.05
253.838	376.78
254.212	400.91
254.587	452.05
254.961	528.64
255.335	734.67
255.71	2231.16
256.084	-1127.78
256.458	-443.93
256.832	-284.56
257.206	-224.38
257.581	-194.99
257.955	-178.52
258.329	-165.91
258.703	-153.55
259.077	-143.7
259.451	-137.15
259.825	-131.59
260.199	-128.43
260.572	-124.91
260.946	-119.39
261.32	-116.92
261.694	-112.29
262.068	-109.01
262.441	-106.78
262.815	-104.98
263.189	-104.25
263.562	-110.4
263.936	-127.66
264.309	-152.07
264.683	-185.8
265.056	-208.95
265.43	-223.47
265.803	-220.89
266.176	-206.18
266.55	-203.89
266.923	-195.31
267.296	-183.82
267.67	-172.59
268.043	-155.56
268.416	-140.17
268.789	-127.12
269.162	-113.33
269.535	-104.84
269.908	-99.59
270.281	-95.37
270.654	-95.21
271.027	-97.87
271.4	-99.08
271.773	-98.18
272.146	-96.13
272.519	-90.81
272.891	-87.56
273.264	-86.07
273.637	-87.3
274.01	-89.85
274.382	-89.7
274.755	-89.39
275.127	-88.18
275.5	-88.9
275.872	-89.84
276.245	-90.36
276.617	-94.63
276.99	-100.57
277.362	-104.58
277.734	-104.84
278.107	-103.86
278.479	-98.72
278.851	-95.56
279.223	-90.89
279.596	-89.79
279.968	-87.9
280.34	-87.9
280.712	-85.14
281.084	-80.51
281.456	-73.13
281.828	-67.52
282.2	-61.78
282.572	-57.71
282.944	-55.62
283.315	-54.13
283.687	-53.2
284.059	-52.76
284.431	-51.05
284.802	-49.43
285.174	-47.9
285.546	-46.46
285.917	-46.22
286.289	-44.93
286.66	-43.63
287.032	-43.47
287.403	-43.09
287.775	-43.34
288.146	-43.06
288.518	-42.88
288.889	-42.54
289.26	-43.92
289.632	-45.08
290.003	-46.66
290.374	-48.66
290.745	-49.55
291.116	-48.87
291.487	-47.9
291.858	-46.59
292.229	-45.45
292.6	-43.55
292.971	-41.8
293.342	-39.56
293.713	-37.27
294.084	-36.1
294.455	-35.38
294.826	-34.72
295.196	-34.19
295.567	-33.35
295.938	-32.98
296.308	-33.14
296.679	-32.68
297.05	-31.82
297.42	-30.86
297.791	-29.43
298.161	-27.63
298.532	-26.64
298.902	-26.2
299.272	-25.41
299.643	-24.48
300.013	-24.09
300.383	-23.82
300.754	-23.64
301.124	-23.88
301.494	-24.12
301.864	-24.24
302.234	-24.03
302.604	-23.9
302.974	-23.2
303.344	-23.13
303.714	-23.32
304.084	-22.68
304.454	-22.38
304.824	-21.55
305.194	-20.75
305.563	-20.17
305.933	-19.1
306.303	-17.6
306.673	-16.88
307.042	-16.61
307.412	-16.25
307.781	-15.44
308.151	-14.51
308.521	-13.84
308.89	-13.18
309.259	-12.56
309.629	-12.1
309.998	-11.62
310.368	-11.4
310.737	-11.26
311.106	-10.62
311.475	-9.58
311.845	-9.18
312.214	-8.61
312.583	-8.53
312.952	-8.32
313.321	-8.4
313.69	-8.84
314.059	-9.78
314.428	-10.06
314.797	-10.35
315.166	-10.7
315.535	-11.07
315.904	-11.57
316.272	-11.72
316.641	-12.05
317.01	-12.28
317.379	-12.13
317.747	-11.82
318.116	-11.3
318.484	-10.8
318.853	-10.44
319.221	-10.46
319.59	-10.08
319.958	-10.05
320.327	-9.59
320.695	-9.21
321.063	-8.55
321.432	-7.64
321.8	-6.74
322.168	-5.6
322.536	-4.6
322.905	-3.67
323.273	-3.11
323.641	-2.83
324.009	-2.78
324.377	-2.31
324.745	-1.72
325.113	-1.5
325.481	-1.24
325.849	-0.9
326.216	-0.6
326.584	-0.35
326.952	-0.12
327.32	0.2
327.687	0.54
328.055	1.05
328.423	1.39
328.79	1.32
329.158	1.31
329.525	1.64
329.893	1.84
330.26	2.03
330.628	1.99
330.995	2.43
331.362	2.88
331.73	3.54
332.097	3.84
332.464	4.09
332.831	4.35
333.199	4.49
333.566	4.76
333.933	4.75
334.3	4.92
334.667	5.39
335.034	5.69
335.401	5.81
335.768	5.66
336.135	5.74
336.502	6
336.868	6.27
337.235	6.32
337.602	6.43
337.969	6.6
338.335	6.93
338.702	7.09
339.069	7.25
339.435	7.37
339.802	7.48
340.168	7.56
340.535	7.89
340.901	8.17
341.267	8.32
341.634	8.62
342	8.92
342.366	8.98
342.733	9.08
343.099	9.39
343.465	9.64
343.831	9.86
344.197	10.17
344.563	10.31
344.929	10.61
345.295	10.88
345.661	11.19
346.027	11.31
346.393	11.52
346.759	11.62
347.125	11.7
347.491	11.85
347.856	12.03
348.222	12.2
348.588	12.27
348.953	12.32
349.319	12.6
349.684	12.65
350.05	12.81
350.415	12.98
350.781	13.18
351.146	13.41
351.512	13.47
351.877	13.52
352.242	13.55
352.608	13.55
352.973	13.44
353.338	13.43
353.703	13.54
354.068	13.55
354.433	13.74
354.798	14
355.164	14.12
355.528	14.21
355.893	14.15
356.258	14.28
356.623	14.38
356.988	14.38
357.353	14.5
357.718	14.62
358.082	14.72
358.447	14.71
358.812	14.79
359.176	14.92
359.541	15.01
359.905	15.12
360.27	15.28
360.634	15.49
360.999	15.61
361.363	15.61
361.728	15.64
362.092	15.68
362.456	15.61
362.821	15.65
363.185	15.66
363.549	15.75
363.913	15.81
364.277	15.92
364.641	15.98
365.005	16.06
365.369	16.07
365.733	16.05
366.097	16.11
366.461	16.13
366.825	16.15
367.189	16.21
367.553	16.33
367.916	16.37
368.28	16.45
368.644	16.63
369.007	16.79
369.371	16.86
369.734	16.92
370.098	17.01
370.461	17.04
370.825	17.08
371.188	17.17
371.552	17.23
371.915	17.23
372.278	17.3
372.642	17.28
373.005	17.34
373.368	17.4
373.731	17.43
374.094	17.46
374.457	17.5
374.82	17.52
375.183	17.48
375.546	17.52
375.909	17.56
376.272	17.38
376.635	17.31
376.998	17.29
377.361	17.35
377.723	17.32
378.086	17.34
378.449	17.42
378.811	17.46
379.174	17.43
379.537	17.46
379.899	17.52
380.262	17.6
380.624	17.59
380.987	17.65
381.349	17.64
381.711	17.68
382.074	17.73
382.436	17.81
382.798	17.82
383.16	17.8
383.522	17.8
383.884	17.93
384.247	18.03
384.609	18.12
384.971	18.09
385.333	18.16
385.695	18.19
386.056	18.16
386.418	18.13
386.78	18.17
387.142	18.11
387.504	18.08
387.865	18.11
388.227	18.11
388.589	18.03
388.95	18.04
389.312	18.04
389.673	17.96
390.035	17.92
390.396	17.89
390.758	17.93
391.119	17.85
391.48	17.78
391.842	17.73
392.203	17.69
392.564	17.65
392.925	17.6
393.286	17.58
393.648	17.57
394.009	17.52
394.37	17.43
394.731	17.4
395.092	17.32
395.452	17.22
395.813	17.2
396.174	17.18
396.535	17.13
396.896	17.02
397.257	17
397.617	16.96
397.978	16.94
398.338	16.91
398.699	16.94
399.06	16.9
399.42	16.82
399.781	16.76
400.141	16.69
400.501	16.61
400.862	16.55
401.222	16.5
401.582	16.46
401.943	16.44
402.303	16.45
402.663	16.43
403.023	16.38
403.383	16.34
403.743	16.35
404.103	16.35
404.463	16.36
404.823	16.38
405.183	16.38
405.543	16.39
405.903	16.34
406.262	16.27
406.622	16.29
406.982	16.31
407.342	16.31
407.701	16.33
408.061	16.33
408.42	16.3
408.78	16.3
409.139	16.31
409.499	16.34
409.858	16.34
410.217	16.38
410.577	16.35
410.936	16.32
411.295	16.29
411.655	16.26
412.014	16.21
412.373	16.12
412.732	16.03
413.091	15.97
413.45	15.89
413.809	15.83
414.168	15.68
414.527	15.59
414.886	15.49
415.245	15.37
415.603	15.27
415.962	15.17
416.321	15.05
416.679	14.92
417.038	14.77
417.397	14.63
417.755	14.47
418.114	14.39
418.472	14.3
418.831	14.22
419.189	14.15
419.547	14.07
419.906	13.99
420.264	13.89
420.622	13.79
420.981	13.69
421.339	13.61
421.697	13.55
422.055	13.48
422.413	13.42
422.771	13.38
423.129	13.35
423.487	13.33
423.845	13.31
424.203	13.3
424.56	13.3
424.918	13.29
425.276	13.31
425.634	13.32
425.991	13.31
426.349	13.29
426.707	13.27
427.064	13.29
427.422	13.33
427.779	13.37
428.137	13.39
428.494	13.47
428.851	13.51
429.209	13.54
429.566	13.57
429.923	13.58
430.28	13.6
430.637	13.62
430.995	13.61
431.352	13.62
431.709	13.63
432.066	13.66
432.423	13.69
432.78	13.72
433.137	13.76
433.493	13.79
433.85	13.85
434.207	13.86
434.564	13.87
434.92	13.86
435.277	13.86
435.634	13.89
435.99	13.88
436.347	13.9
436.703	13.93
437.06	13.96
437.416	13.99
437.773	13.99
438.129	13.98
438.485	14
438.841	13.99
439.198	13.99
439.554	13.98
439.91	13.97
440.266	13.94
440.622	13.89
440.978	13.86
441.334	13.79
441.69	13.74
442.046	13.67
442.402	13.62
442.758	13.54
443.113	13.46
443.469	13.39
443.825	13.32
444.181	13.27
444.536	13.21
444.892	13.14
445.247	13.09
445.603	13.05
445.958	13
446.314	12.96
446.669	12.92
447.025	12.86
447.38	12.8
447.735	12.75
448.09	12.71
448.446	12.66
448.801	12.63
449.156	12.59
449.511	12.54
449.866	12.51
450.221	12.49
450.576	12.49
450.931	12.47
451.286	12.43
451.641	12.41
451.995	12.38
452.35	12.4
452.705	12.41
453.06	12.4
453.414	12.41
453.769	12.4
454.123	12.41
454.478	12.42
454.832	12.42
455.187	12.44
455.541	12.44
455.896	12.43
456.25	12.43
456.604	12.46
456.958	12.5
457.313	12.53
457.667	12.58
458.021	12.61
458.375	12.68
458.729	12.74
459.083	12.81
459.437	12.88
459.791	12.94
460.145	12.99
460.499	13.08
460.852	13.13
461.206	13.22
461.56	13.31
461.914	13.41
462.267	13.51
462.621	13.65
462.974	13.81
463.328	14
463.681	14.19
464.035	14.38
464.388	14.56
464.742	14.74
465.095	14.9
465.448	15.07
465.801	15.2
466.155	15.34
466.508	15.43
466.861	15.56
467.214	15.66
467.567	15.76
467.92	15.84
468.273	15.94
468.626	16.03
468.979	16.1
469.332	16.15
469.684	16.21
470.037	16.25
470.39	16.29
470.743	16.33
471.095	16.39
471.448	16.44
471.8	16.47
472.153	16.49
472.505	16.5
472.858	16.47
473.21	16.45
473.562	16.4
473.915	16.35
474.267	16.27
474.619	16.22
474.971	16.12
475.324	16.06
475.676	15.95
476.028	15.85
476.38	15.76
476.732	15.65
477.084	15.54
477.436	15.4
477.787	15.25
478.139	15.1
478.491	14.96
478.843	14.77
479.195	14.6
479.546	14.35
479.898	14.08
480.249	13.82
480.601	13.63
480.952	13.48
481.304	13.36
481.655	13.29
482.007	13.21
482.358	13.16
482.709	13.11
483.061	13.06
483.412	13.03
483.763	12.99
484.114	12.97
484.465	12.96
484.816	12.95
485.167	12.96
485.518	12.96
485.869	12.96
486.22	12.99
486.571	13.01
486.922	13.06
487.272	13.13
487.623	13.25
487.974	13.37
488.324	13.5
488.675	13.63
489.025	13.76
489.376	13.88
489.726	14
490.077	14.12
490.427	14.26
490.778	14.41
491.128	14.58
491.478	14.79
491.828	15.03
492.179	15.27
492.529	15.51
492.879	15.77
493.229	16.04
493.579	16.28
493.929	16.52
494.279	16.77
494.629	17.07
494.979	17.39
495.328	17.78
495.678	18.23
496.028	18.7
496.378	19.1
496.727	19.5
497.077	19.9
497.426	20.27
497.776	20.63
498.125	20.99
498.475	21.35
498.824	21.68
499.174	21.99
499.523	22.35
499.872	22.7
500.221	23.08
500.571	23.48
500.92	23.91
501.269	24.32
501.618	24.71
501.967	25.1
502.316	25.49
502.665	25.87
503.014	26.22
503.363	26.56
503.711	26.91
504.06	27.23
504.409	27.54
504.758	27.87
505.106	28.17
505.455	28.47
505.803	28.73
506.152	28.97
506.5	29.2
506.849	29.43
507.197	29.66
507.546	29.88
507.894	30.1
508.242	30.28
508.59	30.46
508.939	30.64
509.287	30.83
509.635	30.98
509.983	31.13
510.331	31.27
510.679	31.4
511.027	31.52
511.375	31.68
511.723	31.82
512.07	31.92
512.418	32.06
512.766	32.18
513.114	32.3
513.461	32.43
513.809	32.54
514.156	32.65
514.504	32.73
514.851	32.8
515.199	32.87
515.546	32.93
515.893	32.99
516.241	33.08
516.588	33.13
516.935	33.19
517.282	33.25
517.63	33.31
517.977	33.35
518.324	33.4
518.671	33.43
519.018	33.47
519.365	33.5
519.711	33.52
520.058	33.55
520.405	33.59
520.752	33.61
521.099	33.66
521.445	33.71
521.792	33.77
522.138	33.79
522.485	33.83
522.832	33.9
523.178	33.97
523.524	34.03
523.871	34.05
524.217	34.08
524.563	34.1
524.91	34.1
525.256	34.12
525.602	34.16
525.948	34.17
526.294	34.17
526.64	34.17
526.986	34.18
527.332	34.19
527.678	34.19
528.024	34.19
528.37	34.19
528.716	34.19
529.061	34.18
529.407	34.19
529.753	34.19
530.098	34.19
530.444	34.18
530.789	34.18
531.135	34.18
531.48	34.19
531.826	34.21
532.171	34.23
532.516	34.25
532.862	34.24
533.207	34.26
533.552	34.27
533.897	34.3
534.242	34.32
534.587	34.33
534.932	34.35
535.277	34.35
535.622	34.36
535.967	34.38
536.312	34.42
536.657	34.44
537.001	34.45
537.346	34.45
537.691	34.49
538.035	34.47
538.38	34.48
538.724	34.47
539.069	34.44
539.413	34.43
539.758	34.41
540.102	34.43
540.446	34.41
540.791	34.42
541.135	34.42
541.479	34.42
541.823	34.41
542.167	34.38
542.512	34.38
542.856	34.37
543.2	34.35
543.543	34.33
543.887	34.31
544.231	34.32
544.575	34.33
544.919	34.31
545.262	34.33
545.606	34.32
545.95	34.33
546.293	34.36
546.637	34.38
546.98	34.39
547.324	34.38
547.667	34.41
548.011	34.39
548.354	34.36
548.697	34.36
549.04	34.34
549.384	34.34
549.727	34.36
550.07	34.36
550.413	34.37
550.756	34.38
551.099	34.4
551.442	34.41
551.785	34.36
552.128	34.36
552.47	34.32
552.813	34.31
553.156	34.29
553.499	34.26
553.841	34.22
554.184	34.23
554.526	34.21
554.869	34.16
555.211	34.16
555.554	34.16
555.896	34.1
556.238	34.08
556.581	34.06
556.923	34
557.265	33.98
557.607	33.95
557.949	33.91
558.291	33.86
558.633	33.82
558.975	33.76
559.317	33.78
559.659	33.78
560.001	33.76
560.343	33.73
560.685	33.71
561.026	33.66
561.368	33.61
561.71	33.52
562.051	33.51
562.393	33.48
562.734	33.4
563.076	33.38
563.417	33.34
563.759	33.3
564.1	33.28
564.441	33.27
564.782	33.26
565.124	33.22
565.465	33.21
565.806	33.16
566.147	33.19
566.488	33.09
566.829	33.03
567.17	32.99
567.511	32.95
567.851	32.92
568.192	32.92
568.533	32.88
568.874	32.88
569.214	32.87
569.555	32.85
569.895	32.83
570.236	32.83
570.576	32.83
570.917	32.81
571.257	32.79
571.598	32.76
571.938	32.71
572.278	32.71
572.618	32.7
572.959	32.7
573.299	32.64
573.639	32.67
573.979	32.63
574.319	32.6
574.659	32.58
574.999	32.58
575.339	32.53
575.678	32.54
576.018	32.48
576.358	32.43
576.698	32.37
577.037	32.35
577.377	32.3
577.716	32.26
578.056	32.24
578.395	32.21
578.735	32.17
579.074	32.13
579.413	32.06
579.753	32.01
580.092	32.01
580.431	32.02
580.77	32
581.109	32.01
581.448	32.02
581.787	31.97
582.126	31.91
582.465	31.9
582.804	31.86
583.143	31.87
583.482	31.82
583.82	31.83
584.159	31.86
584.498	31.85
584.836	31.83
585.175	31.81
585.514	31.8
585.852	31.83
586.19	31.86
586.529	31.88
586.867	31.89
587.205	31.86
587.544	31.88
587.882	31.82
588.22	31.76
588.558	31.73
588.896	31.73
589.234	31.72
589.572	31.72
589.91	31.67
590.248	31.65
590.586	31.68
590.924	31.68
591.262	31.63
591.599	31.61
591.937	31.62
592.275	31.6
592.612	31.56
592.95	31.49
593.287	31.44
593.625	31.43
593.962	31.45
594.299	31.42
594.637	31.4
594.974	31.42
595.311	31.47
595.648	31.47
595.985	31.49
596.322	31.51
596.659	31.51
596.996	31.5
597.333	31.51
597.67	31.47
598.007	31.46
598.344	31.45
598.681	31.43
599.017	31.4
599.354	31.39
599.691	31.38
600.027	31.37
600.364	31.39
600.7	31.38
601.037	31.33
601.373	31.35
601.71	31.34
602.046	31.34
602.382	31.34
602.718	31.32
603.054	31.31
603.391	31.28
603.727	31.26
604.063	31.29
604.399	31.27
604.735	31.29
605.071	31.26
605.406	31.28
605.742	31.29
606.078	31.29
606.414	31.32
606.749	31.32
607.085	31.3
607.421	31.32
607.756	31.31
608.092	31.28
608.427	31.24
608.762	31.22
609.098	31.16
609.433	31.14
609.768	31.15
610.104	31.11
610.439	31.08
610.774	31.07
611.109	31.04
611.444	31.04
611.779	30.97
612.114	30.94
612.449	30.88
612.784	30.88
613.118	30.86
613.453	30.79
613.788	30.75
614.123	30.75
614.457	30.68
614.792	30.67
615.126	30.68
615.461	30.68
615.795	30.67
616.13	30.69
616.464	30.65
616.798	30.59
617.132	30.62
617.467	30.66
617.801	30.65
618.135	30.62
618.469	30.6
618.803	30.63
619.137	30.67
619.471	30.71
619.805	30.64
620.139	30.63
620.472	30.66
620.806	30.66
621.14	30.67
621.473	30.69
621.807	30.66
622.141	30.62
622.474	30.62
622.808	30.58
623.141	30.58
623.474	30.59
623.808	30.65
624.141	30.66
624.474	30.61
624.807	30.6
625.141	30.63
625.474	30.66
625.807	30.71
626.14	30.68
626.473	30.72
626.806	30.75
627.138	30.8
627.471	30.75
627.804	30.73
628.137	30.69
628.469	30.67
628.802	30.67
629.135	30.66
629.467	30.64
629.8	30.68
630.132	30.69
630.465	30.7
630.797	30.64
631.129	30.64
631.461	30.69
631.794	30.71
632.126	30.63
632.458	30.64
632.79	30.57
633.122	30.57
633.454	30.53
633.786	30.55
634.118	30.49
634.45	30.5
634.781	30.51
635.113	30.52
635.445	30.49
635.777	30.47
636.108	30.54
636.44	30.56
636.771	30.47
637.103	30.45
637.434	30.48
637.765	30.46
638.097	30.44
638.428	30.35
638.759	30.34
639.09	30.37
639.422	30.37
639.753	30.36
640.084	30.39
640.415	30.37
640.746	30.37
641.077	30.37
641.407	30.45
641.738	30.5
642.069	30.51
642.4	30.57
642.73	30.64
643.061	30.64
643.392	30.62
643.722	30.71
644.053	30.65
644.383	30.59
644.713	30.6
645.044	30.64
645.374	30.68
645.704	30.7
646.034	30.72
646.365	30.69
646.695	30.69
647.025	30.68
647.355	30.73
647.685	30.71
648.015	30.7
648.344	30.69
648.674	30.71
649.004	30.74
649.334	30.72
649.663	30.71
649.993	30.69
650.323	30.68
650.652	30.65
650.982	30.72
651.311	30.68
651.64	30.74
651.97	30.66
652.299	30.65
652.628	30.65
652.958	30.65
653.287	30.67
653.616	30.71
653.945	30.69
654.274	30.66
654.603	30.71
654.932	30.69
655.261	30.72
655.589	30.68
655.918	30.67
656.247	30.83
656.576	30.84
656.904	30.88
657.233	30.93
657.561	30.93
657.89	31
658.218	31
658.547	31
658.875	31.06
659.203	31.09
659.532	31.13
659.86	31.11
660.188	31.05
660.516	31.05
660.844	31.13
661.172	31.12
661.5	31.11
661.828	31.11
662.156	31.04
662.484	31.04
662.811	31.01
663.139	30.89
663.467	30.87
663.794	30.77
664.122	30.74
664.45	30.69
664.777	30.64
665.104	30.67
665.432	30.63
665.759	30.56
666.086	30.51
666.414	30.46
666.741	30.52
667.068	30.58
667.395	30.61
667.722	30.54
668.049	30.59
668.376	30.56
668.703	30.61
669.03	30.64
669.357	30.64
669.683	30.67
670.01	30.61
670.337	30.6
670.663	30.65
670.99	30.67
671.317	30.73
671.643	30.71
671.969	30.7
672.296	30.71
672.622	30.74
672.948	30.76
673.275	30.76
673.601	30.73
673.927	30.69
674.253	30.67
674.579	30.72
674.905	30.73
675.231	30.77
675.557	30.78
675.883	30.88
676.209	31
676.534	31.03
676.86	31.17
677.186	31.27
677.511	31.28
677.837	31.29
678.162	31.25
678.488	31.28
678.813	31.32
679.139	31.35
679.464	31.4
679.789	31.54
680.114	31.61
680.44	31.63
680.765	31.64
681.09	31.69
681.415	31.67
681.74	31.65
682.065	31.68
682.39	31.6
682.714	31.5
683.039	31.43
683.364	31.36
683.689	31.27
684.013	31.24
684.338	31.26
684.662	31.24
684.987	31.3
685.311	31.28
685.636	31.25
685.96	31.2
686.284	31.19
686.608	31.03
686.933	30.97
687.257	30.98
687.581	30.99
687.905	30.94
688.229	30.97
688.553	30.95
688.877	30.92
689.201	30.97
689.524	30.94
689.848	30.95
690.172	30.98
690.496	31
690.819	30.99
691.143	30.94
691.466	30.98
691.79	31
692.113	31.01
692.436	31.04
692.76	31.04
693.083	31.11
693.406	31.15
693.729	31.14
694.053	31.1
694.376	31.14
694.699	31.2
695.022	31.23
695.344	31.28
695.667	31.38
695.99	31.51
696.313	31.63
696.636	31.65
696.958	31.7
697.281	31.77
697.604	31.83
697.926	31.91
698.249	31.91
698.571	31.96
698.893	31.99
699.216	31.96
699.538	32.02
699.86	31.95
700.182	31.98
700.504	32.06
700.827	32.1
701.149	32.14
701.471	32.12
701.793	32.11
702.114	32.08
702.436	31.95
702.758	31.9
703.08	31.89
703.401	31.86
703.723	31.85
704.045	31.84
704.366	31.82
704.688	31.73
705.009	31.66
705.331	31.58
705.652	31.53
705.973	31.67
706.294	31.61
706.616	31.68
706.937	31.65
707.258	31.65
707.579	31.62
707.9	31.63
708.221	31.62
708.542	31.61
708.863	31.62
709.183	31.66
709.504	31.61
709.825	31.62
710.145	31.59
710.466	31.57
710.787	31.52
711.107	31.42
711.427	31.46
711.748	31.5
712.068	31.46
712.388	31.49
712.709	31.39
713.029	31.42
713.349	31.41
713.669	31.42
713.989	31.48
714.309	31.56
714.629	31.55
714.949	31.49
715.269	31.54
715.589	31.62
715.908	31.64
716.228	31.68
716.548	31.68
716.867	31.73
717.187	31.78
717.506	31.81
717.826	31.94
718.145	31.99
718.465	31.92
718.784	32.11
719.103	32.2
719.422	32.24
719.741	32.36
720.061	32.5
720.38	32.61
720.699	32.65
721.018	32.71
721.336	32.7
721.655	32.93
721.974	32.89
722.293	32.89
722.612	33.1
722.93	33.18
723.249	33.34
723.567	33.4
723.886	33.51
724.204	33.64
724.523	33.61
724.841	33.68
725.159	33.96
725.477	33.91
725.796	34.03
726.114	34.42
726.432	34.52
726.75	34.55
727.068	34.6
727.386	34.83
727.704	34.95
728.022	35.19
728.339	35.26
728.657	35.49
728.975	35.63
729.292	35.64
729.61	35.77
729.928	35.79
730.245	35.94
730.562	36.03
730.88	36.03
731.197	36.24
731.514	36.35
731.832	36.37
732.149	36.56
732.466	36.59
732.783	36.54
733.1	36.62
733.417	36.77
733.734	36.97
734.051	36.92
734.368	37.05
734.684	37.17
735.001	37.23
735.318	37.25
735.634	37.46
735.951	37.64
736.268	37.78
736.584	38
736.9	38.16
737.217	38.28
737.533	38.49
737.849	38.55
738.166	38.75
738.482	39.04
738.798	39.06
739.114	39.33
739.43	39.43
739.746	39.51
740.062	39.54
740.378	39.49
740.693	39.48
741.009	39.56
741.325	39.57
741.641	39.73
741.956	39.66
742.272	39.54
742.587	39.53
742.903	39.63
743.218	39.75
743.533	39.64
743.849	39.62
744.164	39.7
744.479	39.94
744.794	39.87
745.109	39.78
745.424	40
745.739	40.02
746.054	40.25
746.369	40.36
746.684	40.38
746.999	40.43
747.313	40.66
747.628	40.75
747.943	40.91
748.257	41.09
748.572	41.44
748.886	41.69
749.201	41.78
749.515	41.78
749.829	41.81
750.144	41.99
750.458	42.2
750.772	42.32
751.086	42.28
751.4	42.38
751.714	42.56
752.028	42.54
752.342	42.64
752.656	42.4
752.97	42.29
753.284	42.44
753.597	42.61
753.911	42.75
754.225	42.7
754.538	42.71
754.852	42.69
755.165	42.62
755.478	42.61
755.792	42.68
756.105	42.69
756.418	42.76
756.731	42.83
757.045	42.96
757.358	42.84
757.671	42.7
757.984	42.99
758.297	43.07
758.609	43.25
758.922	43.37
759.235	43.51
759.548	43.6
759.86	43.62
760.173	43.44
760.486	43.27
760.798	43.2
761.111	43.16
761.423	43.01
761.735	43.06
762.048	43
762.36	42.93
762.672	43.17
762.984	43.13
763.296	43.04
763.608	42.98
763.92	43.13
764.232	43.29
764.544	43.24
764.856	43.32
765.168	43.37
765.48	43.38
765.791	43.52
766.103	43.67
766.414	43.81
766.726	44.09
767.037	44.2
767.349	44.59
767.66	45.02
767.972	45.47
768.283	45.81
768.594	46.15
768.905	46.3
769.216	46.3
769.527	46.52
769.838	47.07
770.149	47.45
770.46	47.75
770.771	48
771.082	48.01
771.393	47.96
771.703	47.97
772.014	47.95
772.324	48.06
772.635	48.23
772.945	48.23
773.256	48.41
773.566	48.76
773.877	48.86
774.187	48.57
774.497	48.58
774.807	48.55
775.117	48.83
775.427	49.22
775.737	49.44
776.047	49.72
776.357	49.58
776.667	49.54
776.977	49.6
777.287	49.58
777.596	49.62
777.906	49.82
778.216	49.82
778.525	50.02
778.835	50.02
779.144	50.01
779.453	50.34
779.763	50.35
780.072	50.48
780.381	50.51
780.69	50.9
781	50.91
781.309	51.22
781.618	51.43
781.927	51.76
782.235	51.7
782.544	51.73
782.853	51.92
783.162	51.99
783.471	52.02
783.779	52.22
784.088	52.37
784.396	52.41
784.705	52.39
785.013	52.14
785.322	52.05
785.63	52.03
785.938	51.72
786.246	51.5
786.554	51.25
786.863	51.22
787.171	51.02
787.479	51.25
787.787	51.18
788.094	51.01
788.402	50.93
788.71	51.09
789.018	51.03
789.326	50.94
789.633	51
789.941	50.89
790.248	51
790.556	51.39
790.863	51.46
791.171	51.74
791.478	52.08
791.785	52.6
792.092	52.85
792.399	53.23
792.707	53.82
793.014	54.2
793.321	54.36
793.628	54.29
793.934	54.44
794.241	54.12
794.548	53.91
794.855	53.7
795.161	53.69
795.468	53.78
795.775	53.94
796.081	53.75
796.388	54.3
796.694	54.25
797	53.91
797.307	53.8
797.613	53.67
797.919	53.65
798.225	53.24
798.531	53.19
798.837	53.08
799.143	52.87
799.449	52.78
799.755	52.82
800.061	53.02
800.367	52.92
800.672	53.56
800.978	54
801.284	54.46
801.589	54.71
801.895	54.91
802.2	54.99
802.506	55.3
802.811	54.84
803.116	54.8
803.421	54.68
803.727	54.75
804.032	55.16
804.337	55.4
804.642	55.91
804.947	56.14
805.252	56.58
805.556	57.03
805.861	57.22
806.166	57.39
806.471	57.58
806.775	57.97
807.08	58.02
807.384	57.97
807.689	57.79
807.993	57.62
808.298	57.57
808.602	57.76
808.906	58.37
809.211	58.76
809.515	59.05
809.819	59.3
810.123	59.66
810.427	59.75
810.731	59.75
811.035	59.81
811.338	60.02
811.642	60.05
811.946	59.75
812.25	60.13
812.553	60.29
812.857	60.31
813.16	60.06
813.464	60.05
813.767	60.3
814.07	60.21
814.374	60.36
814.677	60.18
814.98	60.17
815.283	59.55
815.586	59.19
815.889	58.82
816.192	58.78
816.495	58.43
816.798	57.87
817.101	57.28
817.404	56.38
817.706	55.81
818.009	55.31
818.312	54.92
818.614	53.79
818.917	52.39
819.219	50.69
819.521	49.48
819.824	48.23
820.126	47.28
820.428	46.6
820.73	46
821.032	45.59
821.334	45.38
821.636	45.28
821.938	45.2
822.24	45.29
822.542	45.28
822.844	45.24
823.145	45.24
823.447	45.31
823.749	45.41
824.05	45.36
824.352	45.22
824.653	45.05
824.955	45.01
825.256	45.1
825.557	45.29
825.858	45.43
826.16	45.72
826.461	46.07
826.762	46.42
827.063	46.76
827.364	47.38
827.665	47.74
827.965	48.07
828.266	48.39
828.567	48.54
828.868	48.74
829.168	49
829.469	49.22
829.769	49.38
830.07	49.55
830.37	49.81
830.67	50.27
830.971	50.96
831.271	51.21
831.571	51.34
831.871	51.54
832.171	51.59
832.471	51.5
832.771	51.49
833.071	51.9
833.371	52.44
833.671	52.34
833.971	52.39
834.27	52.19
834.57	52.23
834.869	52.35
835.169	52.4
835.468	52.26
835.768	52.3
836.067	52.25
836.367	52.46
836.666	52.61
836.965	52.7
837.264	52.95
837.563	53.64
837.862	54.19
838.161	55.18
838.46	56.05
838.759	56.81
839.058	57.41
839.356	57.63
839.655	58.13
839.954	58.75
840.252	59.06
840.551	59.87
840.849	60.3
841.148	60.48
841.446	61.04
841.744	61.49
842.043	61.52
842.341	61.67
842.639	61.66
842.937	62.56
843.235	63.12
843.533	63.77
843.831	64.27
844.129	65.21
844.427	65.18
844.724	65.94
845.022	67.32
845.32	68.47
845.617	68.9
845.915	69.1
846.212	68.85
846.51	69.57
846.807	69.79
847.104	69.21
847.402	69.61
847.699	69.4
847.996	69.79
848.293	70.26
848.59	70.36
848.887	70.54
849.184	69.52
849.481	69.73
849.778	69.87
850.074	70.17
850.371	70.53
850.668	71.02
850.964	70.8
851.261	70.3
851.557	69.83
851.854	70.78
852.15	70.77
852.446	71.33
852.743	70.98
853.039	71.16
853.335	72.51
853.631	73.07
853.927	74.1
854.223	74.51
854.519	74.78
854.815	75.17
855.111	74.09
855.406	74.61
855.702	75.17
855.998	74.36
856.293	74.5
856.589	74.8
856.884	75.47
857.18	75.77
857.475	76.17
857.77	76.09
858.066	75.65
858.361	76.41
858.656	77.34
858.951	78.41
859.246	79.06
859.541	77.93
859.836	77.1
860.131	76.56
860.426	77.32
860.72	77.2
861.015	77.94
861.31	79.47
861.604	80.13
861.899	79.31
862.193	79.71
862.487	79.93
862.782	79.35
863.076	78.77
863.37	78.09
863.664	77.92
863.959	79.12
864.253	79.32
864.547	78.75
864.841	77.71
865.135	77.67
865.428	76.84
865.722	78.33
866.016	78.94
866.31	79.01
866.603	78.25
866.897	78.08
867.19	78.22
867.484	77.79
867.777	77.44
868.07	77.5
868.364	78.76
868.657	78.45
868.95	78.32
869.243	78.43
869.536	78.95
869.829	78.23
870.122	77.09
870.415	77.19
870.708	76.83
871	76.51
871.293	75.43
871.586	75.83
871.878	75.5
872.171	75.49
872.463	74.85
872.756	74.44
873.048	75.01
873.341	74.29
873.633	74.39
873.925	73.95
874.217	74.41
874.509	73.04
874.801	73.37
875.093	73.42
875.385	73.17
875.677	72.95
875.969	73.83
