Data from pcis_p_h3_p1_Reflection_2.txt Node
Date: Wed Jul 12 17:51:20 ART 2017
User: rodoncho
Spectrometer: USB2E3644
Trigger mode: 4
Integration Time (sec): 6.000000E-2
Scans to average: 10
Electric dark correction enabled: true
Nonlinearity correction enabled: false
Boxcar width: 10
XAxis mode: Wavelengths
Number of Pixels in Spectrum: 2048
>>>>>Begin Spectral Data<<<<<
178.315	-436.67
178.696	566.67
179.076	572.81
179.457	459.42
179.838	283.33
180.218	1133.33
180.599	70.83
180.979	-50
181.36	30.75
181.74	70.83
182.121	80.21
182.501	108.33
182.881	90.41
183.262	68.85
183.642	77.64
184.022	42.06
184.402	-31.67
184.783	207.78
185.163	237.65
185.543	163.18
185.923	109.79
186.303	111.9
186.683	113.36
187.063	115.21
187.443	117.56
187.823	121.27
188.203	117.64
188.583	108.96
188.963	108.37
189.343	103.14
189.723	102.74
190.102	103.95
190.482	110.1
190.862	109.87
191.242	114.47
191.621	121.92
192.001	124.72
192.38	124.27
192.76	126.16
193.14	124.88
193.519	130.82
193.898	135.26
194.278	135.44
194.657	132.2
195.037	131.38
195.416	134.82
195.795	133.8
196.175	133.74
196.554	133.36
196.933	134.27
197.312	134.06
197.692	137.06
198.071	137.78
198.45	134.87
198.829	137.2
199.208	131.83
199.587	129.71
199.966	127.08
200.345	126.15
200.724	123.29
201.103	121.06
201.482	117.75
201.86	116.18
202.239	114.66
202.618	114.27
202.997	111.49
203.375	107.52
203.754	106.41
204.133	107.59
204.511	108.37
204.89	108.33
205.269	108.29
205.647	107.4
206.026	106.45
206.404	105.92
206.782	102.5
207.161	103.46
207.539	103.95
207.918	103.8
208.296	104.64
208.674	106.68
209.052	108.57
209.431	110.25
209.809	109.88
210.187	110.79
210.565	111.32
210.943	113.42
211.321	114.29
211.699	115.19
212.077	114.98
212.455	113.1
212.833	111.81
213.211	111.18
213.589	111.21
213.967	112.18
214.345	112.93
214.722	114.84
215.1	113.99
215.478	114.82
215.855	115.84
216.233	116.81
216.611	116.57
216.988	115.31
217.366	113.95
217.743	114.81
218.121	115.11
218.498	114.74
218.876	114.83
219.253	116.46
219.631	115.71
220.008	116.33
220.385	118.2
220.762	121.08
221.14	124.28
221.517	125.56
221.894	126.15
222.271	127.54
222.648	126.57
223.025	127.27
223.402	127.12
223.78	127.34
224.157	127.79
224.533	127.01
224.91	127.23
225.287	127.55
225.664	127.17
226.041	125.99
226.418	125.04
226.795	123.74
227.171	122.09
227.548	122.9
227.925	121.49
228.301	120.67
228.678	119.08
229.055	117.03
229.431	115.57
229.808	115.2
230.184	114.55
230.561	116.45
230.937	117.95
231.313	117.64
231.69	117.44
232.066	116.64
232.442	116.51
232.819	116.57
233.195	117.35
233.571	117.85
233.947	120.19
234.323	123.25
234.699	125.42
235.075	125.31
235.451	124.61
235.827	126.13
236.203	126.77
236.579	127.15
236.955	128.07
237.331	129.04
237.707	131.97
238.083	134.97
238.459	138.7
238.834	144.52
239.21	149.53
239.586	153.79
239.961	158.28
240.337	161.04
240.713	165.87
241.088	169.49
241.464	174.19
241.839	176.96
242.215	181.61
242.59	192.83
242.965	219.14
243.341	268.07
243.716	333.23
244.091	448.37
244.467	590.17
244.842	813.22
245.217	1338.47
245.592	1622.17
245.967	2133.11
246.343	2049.58
246.718	1936.35
247.093	2172.83
247.468	2279.95
247.843	3428.62
248.218	-79558.33
248.593	-2712.15
248.967	-1286.42
249.342	-979.73
249.717	-898.41
250.092	-885.09
250.467	-1092.53
250.841	-1972.71
251.216	5469.54
251.591	1281.73
251.965	749.14
252.34	582.11
252.714	510.44
253.089	443.18
253.463	442.78
253.838	443.43
254.212	452.21
254.587	498.78
254.961	606.24
255.335	1086.32
255.71	-8700.93
256.084	-759.4
256.458	-377.13
256.832	-261.38
257.206	-215.42
257.581	-192.75
257.955	-181.42
258.329	-169.6
258.703	-159.93
259.077	-151.28
259.451	-143.24
259.825	-133.8
260.199	-128.77
260.572	-126.81
260.946	-122.54
261.32	-121.19
261.694	-117.82
262.068	-114.97
262.441	-113.93
262.815	-113.54
263.189	-116.15
263.562	-122.72
263.936	-138.3
264.309	-164.17
264.683	-193.97
265.056	-217.99
265.43	-228.89
265.803	-226.75
266.176	-218.94
266.55	-212.33
266.923	-204.9
267.296	-199.51
267.67	-188.72
268.043	-174.85
268.416	-158.98
268.789	-143.15
269.162	-124.72
269.535	-114.71
269.908	-109.17
270.281	-105.14
270.654	-106.28
271.027	-108.49
271.4	-111.17
271.773	-111.37
272.146	-109.02
272.519	-103.54
272.891	-99.6
273.264	-99.61
273.637	-99.41
274.01	-99.81
274.382	-99.13
274.755	-98.39
275.127	-96.62
275.5	-99
275.872	-98.93
276.245	-99.19
276.617	-101.34
276.99	-106.02
277.362	-110.74
277.734	-113.54
278.107	-112.67
278.479	-105.94
278.851	-101.8
279.223	-98.28
279.596	-95.99
279.968	-95.72
280.34	-96.91
280.712	-94.64
281.084	-88.27
281.456	-80.86
281.828	-75.01
282.2	-69.43
282.572	-64.43
282.944	-61.7
283.315	-59.86
283.687	-59.12
284.059	-59.11
284.431	-58.29
284.802	-57.58
285.174	-55.8
285.546	-54.09
285.917	-53.32
286.289	-52.28
286.66	-51.28
287.032	-50.65
287.403	-49.88
287.775	-48.89
288.146	-48.23
288.518	-47.57
288.889	-47.65
289.26	-48.93
289.632	-49.68
290.003	-50.83
290.374	-52.48
290.745	-52.83
291.116	-52.28
291.487	-50.84
291.858	-49.47
292.229	-48.69
292.6	-47.22
292.971	-45.75
293.342	-43.78
293.713	-41.72
294.084	-40.13
294.455	-39.42
294.826	-38.29
295.196	-38.31
295.567	-38.07
295.938	-37.69
296.308	-37.97
296.679	-37.09
297.05	-35.72
297.42	-35.41
297.791	-34.92
298.161	-33.95
298.532	-33.44
298.902	-33.25
299.272	-32.57
299.643	-31.47
300.013	-31.14
300.383	-31.08
300.754	-30.71
301.124	-30.99
301.494	-30.83
301.864	-31.02
302.234	-30.82
302.604	-30.82
302.974	-30.36
303.344	-30.14
303.714	-29.93
304.084	-28.96
304.454	-28.72
304.824	-28.33
305.194	-27.25
305.563	-26.4
305.933	-25.16
306.303	-23.83
306.673	-22.67
307.042	-21.78
307.412	-21.24
307.781	-19.79
308.151	-18.5
308.521	-17.95
308.89	-17.18
309.259	-16.66
309.629	-16.13
309.998	-15.68
310.368	-15.63
310.737	-15.28
311.106	-14.8
311.475	-14.05
311.845	-13.77
312.214	-13.2
312.583	-12.79
312.952	-12.55
313.321	-12.12
313.69	-12.12
314.059	-12.66
314.428	-12.95
314.797	-13.44
315.166	-13.78
315.535	-14.44
315.904	-14.77
316.272	-14.71
316.641	-14.93
317.01	-15.1
317.379	-15.37
317.747	-15.4
318.116	-15.1
318.484	-14.7
318.853	-14.21
319.221	-14.04
319.59	-13.89
319.958	-13.88
320.327	-13.57
320.695	-13.24
321.063	-13.14
321.432	-12.9
321.8	-12
322.168	-10.98
322.536	-9.93
322.905	-8.97
323.273	-8.37
323.641	-7.94
324.009	-7.98
324.377	-7.57
324.745	-7.3
325.113	-6.91
325.481	-6.37
325.849	-5.66
326.216	-5.06
326.584	-4.6
326.952	-4.35
327.32	-3.81
327.687	-3.48
328.055	-3.35
328.423	-3.24
328.79	-3.12
329.158	-2.91
329.525	-2.63
329.893	-2.46
330.26	-2.55
330.628	-2.68
330.995	-2.29
331.362	-2.03
331.73	-1.26
332.097	-0.94
332.464	-0.79
332.831	-0.61
333.199	-0.31
333.566	-0.31
333.933	-0.41
334.3	-0.53
334.667	-0.26
335.034	-0.13
335.401	0.11
335.768	0.41
336.135	0.65
336.502	1.04
336.868	1.33
337.235	1.56
337.602	1.82
337.969	2.11
338.335	2.41
338.702	2.69
339.069	2.91
339.435	2.81
339.802	2.93
340.168	3.21
340.535	3.4
340.901	3.38
341.267	3.66
341.634	3.89
342	4.21
342.366	4.28
342.733	4.39
343.099	4.5
343.465	4.7
343.831	4.9
344.197	4.99
344.563	5.02
344.929	5.05
345.295	5.21
345.661	5.3
346.027	5.59
346.393	5.6
346.759	5.58
347.125	5.77
347.491	5.97
347.856	6.18
348.222	6.25
348.588	6.34
348.953	6.35
349.319	6.53
349.684	6.53
350.05	6.64
350.415	6.81
350.781	7
351.146	7.03
351.512	7.08
351.877	7.27
352.242	7.32
352.608	7.32
352.973	7.22
353.338	7.34
353.703	7.29
354.068	7.38
354.433	7.54
354.798	7.56
355.164	7.58
355.528	7.55
355.893	7.68
356.258	7.85
356.623	8.03
356.988	8.08
357.353	8.36
357.718	8.5
358.082	8.54
358.447	8.52
358.812	8.52
359.176	8.58
359.541	8.53
359.905	8.66
360.27	8.77
360.634	8.9
360.999	8.93
361.363	8.98
361.728	9.09
362.092	9.07
362.456	9.13
362.821	9.16
363.185	9.24
363.549	9.35
363.913	9.36
364.277	9.28
364.641	9.37
365.005	9.32
365.369	9.36
365.733	9.46
366.097	9.65
366.461	9.74
366.825	9.83
367.189	9.98
367.553	10.06
367.916	10.2
368.28	10.25
368.644	10.41
369.007	10.5
369.371	10.49
369.734	10.59
370.098	10.73
370.461	10.85
370.825	10.92
371.188	10.95
371.552	11.13
371.915	11.25
372.278	11.26
372.642	11.36
373.005	11.42
373.368	11.41
373.731	11.34
374.094	11.43
374.457	11.47
374.82	11.5
375.183	11.55
375.546	11.57
375.909	11.63
376.272	11.6
376.635	11.59
376.998	11.64
377.361	11.66
377.723	11.67
378.086	11.69
378.449	11.75
378.811	11.85
379.174	11.86
379.537	11.98
379.899	12.11
380.262	12.11
380.624	12.1
380.987	12.15
381.349	12.19
381.711	12.17
382.074	12.2
382.436	12.28
382.798	12.25
383.16	12.23
383.522	12.26
383.884	12.35
384.247	12.42
384.609	12.47
384.971	12.56
385.333	12.58
385.695	12.59
386.056	12.58
386.418	12.53
386.78	12.53
387.142	12.45
387.504	12.37
387.865	12.31
388.227	12.34
388.589	12.32
388.95	12.37
389.312	12.37
389.673	12.35
390.035	12.28
390.396	12.26
390.758	12.22
391.119	12.17
391.48	12.14
391.842	12.13
392.203	12.08
392.564	12
392.925	11.98
393.286	11.97
393.648	11.96
394.009	11.97
394.37	11.92
394.731	11.89
395.092	11.9
395.452	11.94
395.813	11.92
396.174	11.91
396.535	11.87
396.896	11.82
397.257	11.8
397.617	11.79
397.978	11.82
398.338	11.85
398.699	11.87
399.06	11.81
399.42	11.78
399.781	11.74
400.141	11.71
400.501	11.65
400.862	11.62
401.222	11.59
401.582	11.55
401.943	11.51
402.303	11.5
402.663	11.46
403.023	11.42
403.383	11.42
403.743	11.41
404.103	11.41
404.463	11.46
404.823	11.5
405.183	11.52
405.543	11.49
405.903	11.48
406.262	11.47
406.622	11.48
406.982	11.47
407.342	11.49
407.701	11.56
408.061	11.56
408.42	11.56
408.78	11.59
409.139	11.55
409.499	11.58
409.858	11.61
410.217	11.63
410.577	11.63
410.936	11.61
411.295	11.6
411.655	11.58
412.014	11.53
412.373	11.44
412.732	11.35
413.091	11.3
413.45	11.24
413.809	11.22
414.168	11.12
414.527	11.01
414.886	10.88
415.245	10.74
415.603	10.63
415.962	10.5
416.321	10.38
416.679	10.26
417.038	10.14
417.397	10.02
417.755	9.9
418.114	9.81
418.472	9.7
418.831	9.6
419.189	9.52
419.547	9.43
419.906	9.37
420.264	9.28
420.622	9.2
420.981	9.12
421.339	9.04
421.697	8.99
422.055	8.93
422.413	8.9
422.771	8.86
423.129	8.84
423.487	8.84
423.845	8.81
424.203	8.8
424.56	8.79
424.918	8.79
425.276	8.79
425.634	8.82
425.991	8.82
426.349	8.84
426.707	8.86
427.064	8.86
427.422	8.85
427.779	8.89
428.137	8.93
428.494	8.97
428.851	9.05
429.209	9.08
429.566	9.13
429.923	9.17
430.28	9.19
430.637	9.23
430.995	9.24
431.352	9.29
431.709	9.31
432.066	9.35
432.423	9.39
432.78	9.43
433.137	9.43
433.493	9.47
433.85	9.5
434.207	9.53
434.564	9.56
434.92	9.59
435.277	9.62
435.634	9.66
435.99	9.68
436.347	9.68
436.703	9.68
437.06	9.7
437.416	9.74
437.773	9.76
438.129	9.77
438.485	9.77
438.841	9.78
439.198	9.79
439.554	9.78
439.91	9.79
440.266	9.76
440.622	9.74
440.978	9.7
441.334	9.64
441.69	9.59
442.046	9.53
442.402	9.46
442.758	9.37
443.113	9.28
443.469	9.2
443.825	9.15
444.181	9.11
444.536	9.05
444.892	8.99
445.247	8.93
445.603	8.88
445.958	8.83
446.314	8.77
446.669	8.72
447.025	8.66
447.38	8.59
447.735	8.54
448.09	8.49
448.446	8.45
448.801	8.41
449.156	8.37
449.511	8.34
449.866	8.32
450.221	8.32
450.576	8.31
450.931	8.31
451.286	8.28
451.641	8.27
451.995	8.25
452.35	8.24
452.705	8.25
453.06	8.26
453.414	8.29
453.769	8.29
454.123	8.27
454.478	8.28
454.832	8.29
455.187	8.28
455.541	8.31
455.896	8.32
456.25	8.33
456.604	8.36
456.958	8.41
457.313	8.44
457.667	8.48
458.021	8.53
458.375	8.59
458.729	8.66
459.083	8.72
459.437	8.79
459.791	8.86
460.145	8.92
460.499	8.98
460.852	9.05
461.206	9.15
461.56	9.25
461.914	9.35
462.267	9.47
462.621	9.61
462.974	9.75
463.328	9.93
463.681	10.11
464.035	10.29
464.388	10.47
464.742	10.66
465.095	10.83
465.448	10.99
465.801	11.13
466.155	11.25
466.508	11.39
466.861	11.48
467.214	11.59
467.567	11.7
467.92	11.79
468.273	11.89
468.626	11.97
468.979	12.03
469.332	12.1
469.684	12.16
470.037	12.22
470.39	12.27
470.743	12.33
471.095	12.4
471.448	12.46
471.8	12.47
472.153	12.47
472.505	12.45
472.858	12.42
473.21	12.38
473.562	12.32
473.915	12.22
474.267	12.15
474.619	12.08
474.971	11.99
475.324	11.9
475.676	11.77
476.028	11.66
476.38	11.54
476.732	11.4
477.084	11.27
477.436	11.12
477.787	10.96
478.139	10.79
478.491	10.6
478.843	10.42
479.195	10.24
479.546	9.99
479.898	9.69
480.249	9.4
480.601	9.17
480.952	9
481.304	8.89
481.655	8.8
482.007	8.71
482.358	8.65
482.709	8.59
483.061	8.55
483.412	8.52
483.763	8.47
484.114	8.43
484.465	8.4
484.816	8.39
485.167	8.38
485.518	8.38
485.869	8.39
486.22	8.4
486.571	8.42
486.922	8.46
487.272	8.54
487.623	8.64
487.974	8.76
488.324	8.89
488.675	9.01
489.025	9.12
489.376	9.24
489.726	9.34
490.077	9.46
490.427	9.58
490.778	9.72
491.128	9.9
491.478	10.11
491.828	10.33
492.179	10.55
492.529	10.78
492.879	11.03
493.229	11.25
493.579	11.47
493.929	11.69
494.279	11.9
494.629	12.14
494.979	12.44
495.328	12.79
495.678	13.19
496.028	13.59
496.378	13.95
496.727	14.28
497.077	14.6
497.426	14.9
497.776	15.17
498.125	15.45
498.475	15.71
498.824	15.97
499.174	16.22
499.523	16.49
499.872	16.76
500.221	17.03
500.571	17.31
500.92	17.6
501.269	17.89
501.618	18.15
501.967	18.41
502.316	18.67
502.665	18.92
503.014	19.12
503.363	19.31
503.711	19.51
504.06	19.68
504.409	19.86
504.758	20.01
505.106	20.17
505.455	20.3
505.803	20.42
506.152	20.51
506.5	20.62
506.849	20.71
507.197	20.79
507.546	20.87
507.894	20.94
508.242	21.01
508.59	21.04
508.939	21.1
509.287	21.15
509.635	21.19
509.983	21.21
510.331	21.26
510.679	21.3
511.027	21.31
511.375	21.35
511.723	21.38
512.07	21.42
512.418	21.44
512.766	21.46
513.114	21.46
513.461	21.47
513.809	21.48
514.156	21.49
514.504	21.5
514.851	21.47
515.199	21.45
515.546	21.42
515.893	21.41
516.241	21.41
516.588	21.39
516.935	21.38
517.282	21.38
517.63	21.37
517.977	21.36
518.324	21.35
518.671	21.34
519.018	21.32
519.365	21.31
519.711	21.28
520.058	21.24
520.405	21.21
520.752	21.2
521.099	21.17
521.445	21.13
521.792	21.08
522.138	21.07
522.485	21.07
522.832	21.04
523.178	21.03
523.524	20.99
523.871	20.95
524.217	20.88
524.563	20.78
524.91	20.66
525.256	20.56
525.602	20.48
525.948	20.4
526.294	20.32
526.64	20.28
526.986	20.25
527.332	20.24
527.678	20.23
528.024	20.21
528.37	20.18
528.716	20.16
529.061	20.13
529.407	20.08
529.753	20.03
530.098	19.97
530.444	19.91
530.789	19.86
531.135	19.83
531.48	19.81
531.826	19.8
532.171	19.79
532.516	19.75
532.862	19.69
533.207	19.65
533.552	19.62
533.897	19.57
534.242	19.53
534.587	19.5
534.932	19.46
535.277	19.41
535.622	19.38
535.967	19.34
536.312	19.32
536.657	19.27
537.001	19.21
537.346	19.15
537.691	19.08
538.035	19.01
538.38	18.91
538.724	18.83
539.069	18.73
539.413	18.67
539.758	18.63
540.102	18.61
540.446	18.57
540.791	18.53
541.135	18.5
541.479	18.45
541.823	18.4
542.167	18.34
542.512	18.3
542.856	18.23
543.2	18.18
543.543	18.13
543.887	18.08
544.231	18.05
544.575	18.02
544.919	17.99
545.262	17.96
545.606	17.92
545.95	17.91
546.293	17.88
546.637	17.84
546.98	17.8
547.324	17.75
547.667	17.71
548.011	17.64
548.354	17.58
548.697	17.53
549.04	17.48
549.384	17.44
549.727	17.39
550.07	17.38
550.413	17.34
550.756	17.31
551.099	17.27
551.442	17.24
551.785	17.19
552.128	17.12
552.47	17.06
552.813	17
553.156	16.93
553.499	16.89
553.841	16.86
554.184	16.8
554.526	16.76
554.869	16.7
555.211	16.64
555.554	16.61
555.896	16.55
556.238	16.52
556.581	16.47
556.923	16.4
557.265	16.33
557.607	16.26
557.949	16.18
558.291	16.14
558.633	16.06
558.975	16
559.317	15.94
559.659	15.86
560.001	15.83
560.343	15.8
560.685	15.71
561.026	15.66
561.368	15.59
561.71	15.5
562.051	15.46
562.393	15.45
562.734	15.37
563.076	15.32
563.417	15.26
563.759	15.19
564.1	15.15
564.441	15.11
564.782	15.05
565.124	15
565.465	14.94
565.806	14.93
566.147	14.88
566.488	14.83
566.829	14.8
567.17	14.74
567.511	14.67
567.851	14.65
568.192	14.6
568.533	14.56
568.874	14.52
569.214	14.47
569.555	14.38
569.895	14.33
570.236	14.31
570.576	14.24
570.917	14.2
571.257	14.14
571.598	14.09
571.938	14.05
572.278	14
572.618	13.97
572.959	13.9
573.299	13.86
573.639	13.82
573.979	13.77
574.319	13.75
574.659	13.7
574.999	13.67
575.339	13.6
575.678	13.57
576.018	13.51
576.358	13.46
576.698	13.42
577.037	13.35
577.377	13.28
577.716	13.24
578.056	13.18
578.395	13.13
578.735	13.07
579.074	12.98
579.413	12.88
579.753	12.8
580.092	12.74
580.431	12.69
580.77	12.65
581.109	12.62
581.448	12.57
581.787	12.52
582.126	12.46
582.465	12.42
582.804	12.36
583.143	12.31
583.482	12.26
583.82	12.2
584.159	12.17
584.498	12.1
584.836	12.04
585.175	12.01
585.514	11.99
585.852	11.98
586.19	11.96
586.529	11.97
586.867	11.98
587.205	11.96
587.544	11.93
587.882	11.89
588.22	11.82
588.558	11.76
588.896	11.75
589.234	11.72
589.572	11.68
589.91	11.67
590.248	11.65
590.586	11.66
590.924	11.66
591.262	11.67
591.599	11.69
591.937	11.67
592.275	11.62
592.612	11.58
592.95	11.54
593.287	11.56
593.625	11.55
593.962	11.55
594.299	11.57
594.637	11.56
594.974	11.54
595.311	11.57
595.648	11.57
595.985	11.52
596.322	11.48
596.659	11.45
596.996	11.4
597.333	11.38
597.67	11.32
598.007	11.3
598.344	11.25
598.681	11.18
599.017	11.14
599.354	11.13
599.691	11.11
600.027	11.07
600.364	11.04
600.7	11.02
601.037	10.96
601.373	10.9
601.71	10.92
602.046	10.93
602.382	10.88
602.718	10.89
603.054	10.9
603.391	10.89
603.727	10.88
604.063	10.87
604.399	10.85
604.735	10.85
605.071	10.83
605.406	10.83
605.742	10.85
606.078	10.84
606.414	10.83
606.749	10.84
607.085	10.82
607.421	10.79
607.756	10.75
608.092	10.72
608.427	10.69
608.762	10.62
609.098	10.53
609.433	10.49
609.768	10.44
610.104	10.4
610.439	10.37
610.774	10.35
611.109	10.32
611.444	10.3
611.779	10.27
612.114	10.24
612.449	10.16
612.784	10.14
613.118	10.12
613.453	10.05
613.788	9.96
614.123	9.92
614.457	9.88
614.792	9.83
615.126	9.77
615.461	9.7
615.795	9.63
616.13	9.64
616.464	9.59
616.798	9.54
617.132	9.52
617.467	9.53
617.801	9.49
618.135	9.49
618.469	9.44
618.803	9.36
619.137	9.33
619.471	9.34
619.805	9.29
620.139	9.26
620.472	9.29
620.806	9.27
621.14	9.23
621.473	9.21
621.807	9.19
622.141	9.19
622.474	9.17
622.808	9.19
623.141	9.18
623.474	9.21
623.808	9.26
624.141	9.27
624.474	9.26
624.807	9.28
625.141	9.27
625.474	9.26
625.807	9.33
626.14	9.33
626.473	9.34
626.806	9.37
627.138	9.4
627.471	9.32
627.804	9.35
628.137	9.35
628.469	9.32
628.802	9.29
629.135	9.25
629.467	9.26
629.8	9.24
630.132	9.22
630.465	9.2
630.797	9.14
631.129	9.1
631.461	9.08
631.794	9.05
632.126	9.04
632.458	9.07
632.79	9.01
633.122	9.02
633.454	9
633.786	8.94
634.118	8.86
634.45	8.91
634.781	8.87
635.113	8.83
635.445	8.81
635.777	8.81
636.108	8.82
636.44	8.8
636.771	8.78
637.103	8.75
637.434	8.7
637.765	8.7
638.097	8.65
638.428	8.58
638.759	8.54
639.09	8.45
639.422	8.38
639.753	8.33
640.084	8.28
640.415	8.25
640.746	8.27
641.077	8.27
641.407	8.21
641.738	8.22
642.069	8.23
642.4	8.22
642.73	8.22
643.061	8.2
643.392	8.2
643.722	8.19
644.053	8.14
644.383	8.17
644.713	8.16
645.044	8.15
645.374	8.16
645.704	8.19
646.034	8.23
646.365	8.26
646.695	8.33
647.025	8.32
647.355	8.33
647.685	8.31
648.015	8.36
648.344	8.41
648.674	8.39
649.004	8.4
649.334	8.42
649.663	8.43
649.993	8.44
650.323	8.44
650.652	8.47
650.982	8.5
651.311	8.44
651.64	8.42
651.97	8.43
652.299	8.45
652.628	8.42
652.958	8.43
653.287	8.41
653.616	8.37
653.945	8.35
654.274	8.26
654.603	8.27
654.932	8.24
655.261	8.19
655.589	8.25
655.918	8.33
656.247	8.37
656.576	8.46
656.904	8.51
657.233	8.58
657.561	8.59
657.89	8.63
658.218	8.67
658.547	8.7
658.875	8.74
659.203	8.74
659.532	8.71
659.86	8.67
660.188	8.64
660.516	8.64
660.844	8.64
661.172	8.66
661.5	8.64
661.828	8.6
662.156	8.57
662.484	8.53
662.811	8.43
663.139	8.36
663.467	8.24
663.794	8.12
664.122	7.98
664.45	7.89
664.777	7.81
665.104	7.79
665.432	7.7
665.759	7.61
666.086	7.56
666.414	7.64
666.741	7.68
667.068	7.74
667.395	7.73
667.722	7.76
668.049	7.79
668.376	7.8
668.703	7.82
669.03	7.8
669.357	7.74
669.683	7.74
670.01	7.76
670.337	7.77
670.663	7.8
670.99	7.79
671.317	7.85
671.643	7.91
671.969	7.91
672.296	7.92
672.622	7.94
672.948	7.99
673.275	7.94
673.601	7.89
673.927	7.86
674.253	7.9
674.579	7.84
674.905	7.79
675.231	7.76
675.557	7.81
675.883	7.84
676.209	7.94
676.534	7.92
676.86	7.88
677.186	7.9
677.511	7.99
677.837	8.02
678.162	7.97
678.488	7.98
678.813	8.03
679.139	8.09
679.464	8.13
679.789	8.12
680.114	8.12
680.44	8.17
680.765	8.15
681.09	8.12
681.415	8.1
681.74	8.13
682.065	8.12
682.39	8.1
682.714	8.1
683.039	8.03
683.364	8.04
683.689	8.04
684.013	8
684.338	7.93
684.662	7.96
684.987	7.93
685.311	7.86
685.636	7.79
685.96	7.67
686.284	7.59
686.608	7.55
686.933	7.48
687.257	7.42
687.581	7.41
687.905	7.42
688.229	7.48
688.553	7.47
688.877	7.44
689.201	7.4
689.524	7.37
689.848	7.39
690.172	7.36
690.496	7.39
690.819	7.43
691.143	7.37
691.466	7.26
691.79	7.3
692.113	7.24
692.436	7.2
692.76	7.19
693.083	7.22
693.406	7.23
693.729	7.23
694.053	7.26
694.376	7.27
694.699	7.33
695.022	7.4
695.344	7.49
695.667	7.68
695.99	7.8
696.313	7.9
696.636	7.98
696.958	8.04
697.281	8.02
697.604	8.01
697.926	8.06
698.249	8.09
698.571	8.12
698.893	8.15
699.216	8.09
699.538	8.12
699.86	8.07
700.182	8.01
700.504	8.05
700.827	8.02
701.149	7.99
701.471	7.87
701.793	7.8
702.114	7.73
702.436	7.54
702.758	7.37
703.08	7.22
703.401	7.02
703.723	6.82
704.045	6.75
704.366	6.63
704.688	6.55
705.009	6.54
705.331	6.54
705.652	6.61
705.973	6.71
706.294	6.8
706.616	6.87
706.937	6.93
707.258	6.95
707.579	7.03
707.9	7.09
708.221	7.21
708.542	7.24
708.863	7.21
709.183	7.21
709.504	7.23
709.825	7.23
710.145	7.32
710.466	7.37
710.787	7.35
711.107	7.42
711.427	7.43
711.748	7.34
712.068	7.25
712.388	7.19
712.709	7.12
713.029	7.06
713.349	7.06
713.669	7.12
713.989	7.18
714.309	7.16
714.629	7.2
714.949	7.16
715.269	7.18
715.589	7.17
715.908	7.23
716.228	7.25
716.548	7.27
716.867	7.27
717.187	7.36
717.506	7.39
717.826	7.42
718.145	7.54
718.465	7.68
718.784	7.85
719.103	7.91
719.422	8.05
719.741	8.14
720.061	8.16
720.38	8.25
720.699	8.26
721.018	8.3
721.336	8.22
721.655	8.4
721.974	8.51
722.293	8.69
722.612	8.75
722.93	8.89
723.249	9.1
723.567	9.21
723.886	9.35
724.204	9.48
724.523	9.56
724.841	9.6
725.159	9.75
725.477	9.83
725.796	10.03
726.114	10.19
726.432	10.31
726.75	10.53
727.068	10.59
727.386	10.67
727.704	10.87
728.022	11.07
728.339	11.12
728.657	11.16
728.975	11.21
729.292	11.3
729.61	11.43
729.928	11.5
730.245	11.64
730.562	11.66
730.88	11.88
731.197	12.07
731.514	12.21
731.832	12.28
732.149	12.38
732.466	12.46
732.783	12.63
733.1	12.8
733.417	12.91
733.734	12.97
734.051	13.09
734.368	13.19
734.684	13.35
735.001	13.44
735.318	13.52
735.634	13.7
735.951	13.83
736.268	14.02
736.584	14.25
736.9	14.35
737.217	14.44
737.533	14.42
737.849	14.45
738.166	14.58
738.482	14.92
738.798	15.08
739.114	15.31
739.43	15.39
739.746	15.45
740.062	15.5
740.378	15.7
740.693	15.96
741.009	16.18
741.325	16.39
741.641	16.55
741.956	16.69
742.272	16.84
742.587	17.01
742.903	17.09
743.218	17.13
743.533	17.24
743.849	17.52
744.164	17.73
744.479	17.93
744.794	18.03
745.109	18.02
745.424	18.08
745.739	18.04
746.054	18.14
746.369	18.35
746.684	18.48
746.999	18.48
747.313	18.46
747.628	18.47
747.943	18.47
748.257	18.5
748.572	18.69
748.886	18.73
749.201	18.67
749.515	18.75
749.829	18.8
750.144	19.04
750.458	19.23
750.772	19.28
751.086	19.33
751.4	19.42
751.714	19.49
752.028	19.58
752.342	19.7
752.656	19.75
752.97	19.76
753.284	20.01
753.597	20.25
753.911	20.39
754.225	20.38
754.538	20.48
754.852	20.53
755.165	20.56
755.478	20.68
755.792	20.86
756.105	20.97
756.418	21.06
756.731	21.07
757.045	21.17
757.358	21.42
757.671	21.54
757.984	21.57
758.297	21.58
758.609	21.77
758.922	21.84
759.235	21.84
759.548	21.75
759.86	21.61
760.173	21.34
760.486	21.1
760.798	21.01
761.111	20.81
761.423	20.82
761.735	20.69
762.048	20.7
762.36	20.79
762.672	20.84
762.984	20.88
763.296	20.86
763.608	20.81
763.92	20.74
764.232	20.8
764.544	20.9
764.856	20.95
765.168	20.97
765.48	21.12
765.791	21.4
766.103	21.64
766.414	21.84
766.726	22.07
767.037	22.41
767.349	22.75
767.66	23.23
767.972	23.76
768.283	24.36
768.594	24.79
768.905	25
769.216	25.17
769.527	25.52
769.838	25.95
770.149	26.26
770.46	26.67
770.771	27.03
771.082	27.35
771.393	27.57
771.703	27.77
772.014	27.89
772.324	27.79
772.635	28.05
772.945	28.41
773.256	28.93
773.566	29.14
773.877	29.47
774.187	29.57
774.497	29.49
774.807	29.35
775.117	29.29
775.427	29.6
775.737	30
776.047	30.03
776.357	30.07
776.667	30.18
776.977	30.17
777.287	30.1
777.596	30.08
777.906	30.29
778.216	30.3
778.525	30.31
778.835	30.56
779.144	30.6
779.453	30.52
779.763	30.52
780.072	30.82
780.381	30.82
780.69	31.15
781	31.36
781.309	31.62
781.618	32.01
781.927	32.24
782.235	32.06
782.544	32.25
782.853	32.28
783.162	32.17
783.471	32.36
783.779	32.34
784.088	32.38
784.396	32.51
784.705	32.7
785.013	32.56
785.322	32.35
785.63	32.18
785.938	32.18
786.246	32.03
786.554	31.72
786.863	31.71
787.171	31.37
787.479	31.51
787.787	31.74
788.094	31.58
788.402	31.41
788.71	31.64
789.018	31.62
789.326	31.71
789.633	32.13
789.941	32.12
790.248	32.34
790.556	32.43
790.863	32.49
791.171	32.4
791.478	32.69
791.785	32.77
792.092	33
792.399	33.26
792.707	33.55
793.014	34.01
793.321	33.97
793.628	34.04
793.934	33.79
794.241	33.41
794.548	33.4
794.855	33.35
795.161	33.14
795.468	33.01
795.775	32.9
796.081	32.66
796.388	32.61
796.694	32.86
797	32.97
797.307	33.06
797.613	33.09
797.919	33.38
798.225	33.58
798.531	33.75
798.837	33.86
799.143	33.87
799.449	33.95
799.755	34.14
800.061	34.54
800.367	35.01
800.672	35.56
800.978	35.75
801.284	36.14
801.589	36.69
801.895	37.08
802.2	37.55
802.506	37.59
802.811	37.75
803.116	37.51
803.421	37.21
803.727	37.19
804.032	37.33
804.337	37.47
804.642	37.54
804.947	37.71
805.252	37.56
805.556	37.34
805.861	37.28
806.166	37.53
806.471	37.51
806.775	37.42
807.08	37.36
807.384	37.31
807.689	37.2
807.993	37.12
808.298	37.29
808.602	37.33
808.906	37.76
809.211	38.06
809.515	38.29
809.819	38.94
810.123	39.24
810.427	39.45
810.731	39.36
811.035	39.52
811.338	39.56
811.642	39.81
811.946	40.4
812.25	40.82
812.553	40.84
812.857	40.95
813.16	41.01
813.464	41.11
813.767	41.58
814.07	41.54
814.374	41.6
814.677	41.56
814.98	41.57
815.283	41.37
815.586	41.02
815.889	40.69
816.192	40.61
816.495	40.33
816.798	39.98
817.101	39.55
817.404	38.8
817.706	38.02
818.009	37.2
818.312	36.12
818.614	34.76
818.917	33.22
819.219	30.96
819.521	28.68
819.824	26.72
820.126	25.11
820.428	24.14
820.73	23.4
821.032	22.74
821.334	22.18
821.636	21.93
821.938	21.75
822.24	21.62
822.542	21.49
822.844	21.44
823.145	21.43
823.447	21.34
823.749	21.34
824.05	21.17
824.352	20.99
824.653	20.89
824.955	20.78
825.256	20.67
825.557	20.81
825.858	21.07
826.16	21.38
826.461	21.83
826.762	22.28
827.063	22.73
827.364	23.27
827.665	23.9
827.965	24.28
828.266	24.73
828.567	25.07
828.868	25.45
829.168	25.53
829.469	25.62
829.769	25.85
830.07	25.98
830.37	26.43
830.67	27.12
830.971	27.61
831.271	28.33
831.571	28.81
831.871	28.89
832.171	28.88
832.471	29.13
832.771	29.23
833.071	29.37
833.371	29.58
833.671	29.76
833.971	30.04
834.27	30.12
834.57	30.26
834.869	30.25
835.169	30.21
835.468	30.37
835.768	30.43
836.067	30.71
836.367	30.95
836.666	31.53
836.965	31.82
837.264	32.39
837.563	32.93
837.862	34.11
838.161	35.52
838.46	37.01
838.759	38.24
839.058	39.38
839.356	40.48
839.655	41.19
839.954	41.65
840.252	42.01
840.551	42.85
840.849	43.22
841.148	44.09
841.446	44.53
841.744	45.44
842.043	46.02
842.341	46.25
842.639	46.83
842.937	47.13
843.235	48.1
843.533	49.25
843.831	50.3
844.129	51.03
844.427	51.74
844.724	52.63
845.022	53.44
845.32	54.1
845.617	54.5
845.915	55.72
846.212	57.26
846.51	58
846.807	58.62
847.104	59.15
847.402	59.81
847.699	60.61
847.996	60.89
848.293	61.13
848.59	61.35
848.887	62.07
849.184	62.09
849.481	61.93
849.778	62.33
850.074	61.72
850.371	62.14
850.668	62.47
850.964	62.33
851.261	62.4
851.557	62.31
851.854	62.34
852.15	61.57
852.446	61.04
852.743	61.03
853.039	60.68
853.335	60.44
853.631	60.29
853.927	60.48
854.223	60.8
854.519	61.41
854.815	61.16
855.111	60.2
855.406	59.85
855.702	59.9
855.998	59.39
856.293	59.47
856.589	59.3
856.884	59.62
857.18	60.09
857.475	60.23
857.77	61.28
858.066	61.94
858.361	62.09
858.656	62.65
858.951	62.37
859.246	62.03
859.541	62.36
859.836	61.83
860.131	60.85
860.426	60.1
860.72	59.91
861.015	60.39
861.31	61.69
861.604	62.22
861.899	62.72
862.193	63.35
862.487	64.51
862.782	65.31
863.076	65.92
863.37	65.74
863.664	66.35
863.959	65.39
864.253	64.5
864.547	64.77
864.841	64.33
865.135	64.3
865.428	64.16
865.722	64.36
866.016	65.16
866.31	66.74
866.603	66.39
866.897	65.69
867.19	65.29
867.484	63.77
867.777	63.2
868.07	62.33
868.364	62.77
868.657	62.33
868.95	61.27
869.243	60.77
869.536	60.52
869.829	59.81
870.122	60.42
870.415	60.56
870.708	61.17
871	60.63
871.293	61
871.586	61.78
871.878	60.97
872.171	60.68
872.463	58.88
872.756	58.45
873.048	60.17
873.341	60.38
873.633	61.18
873.925	61.94
874.217	62.36
874.509	60.96
874.801	60.66
875.093	61.12
875.385	60.33
875.677	59.97
875.969	59.6
