Data from pcis_p_m3_p1_Reflection_1.txt Node
Date: Wed Jul 12 17:44:10 ART 2017
User: rodoncho
Spectrometer: USB2E3644
Trigger mode: 4
Integration Time (sec): 6.000000E-2
Scans to average: 10
Electric dark correction enabled: true
Nonlinearity correction enabled: false
Boxcar width: 10
XAxis mode: Wavelengths
Number of Pixels in Spectrum: 2048
>>>>>Begin Spectral Data<<<<<
178.315	100
178.696	127.27
179.076	162.61
179.457	206.36
179.838	108.57
180.218	-75.42
180.599	-321.88
180.979	35.56
181.36	222.73
181.74	-264.86
182.121	19.51
182.501	90.25
182.881	88.54
183.262	55
183.642	89.83
184.022	105.94
184.402	95.97
184.783	89.49
185.163	78.57
185.543	77.46
185.923	89.37
186.303	84.48
186.683	93.94
187.063	99.08
187.443	102.39
187.823	106.11
188.203	101.05
188.583	103.98
188.963	114.12
189.343	119.19
189.723	124.32
190.102	121.37
190.482	116.55
190.862	113.74
191.242	115.07
191.621	114.23
192.001	113.91
192.38	115.16
192.76	113.93
193.14	115.15
193.519	115.18
193.898	112.42
194.278	115.13
194.657	114.59
195.037	114.36
195.416	111.5
195.795	107.23
196.175	105.51
196.554	104.95
196.933	100.78
197.312	97.22
197.692	96.4
198.071	98.67
198.45	100.7
198.829	102.77
199.208	104.51
199.587	103.96
199.966	105.52
200.345	104.58
200.724	103.48
201.103	103.18
201.482	105.01
201.86	105.25
202.239	104.49
202.618	103.09
202.997	103.27
203.375	103.69
203.754	104.36
204.133	103.55
204.511	103.84
204.89	106.12
205.269	108.15
205.647	108.18
206.026	106.6
206.404	105.04
206.782	103.74
207.161	102.29
207.539	103.26
207.918	102.21
208.296	102.17
208.674	104.07
209.052	105.29
209.431	104.01
209.809	103.11
210.187	102.18
210.565	103.09
210.943	103.17
211.321	104.32
211.699	103.93
212.077	105.26
212.455	105.67
212.833	105.28
213.211	104.98
213.589	105.08
213.967	105.73
214.345	106.93
214.722	108.57
215.1	109.59
215.478	109.8
215.855	109.02
216.233	108.93
216.611	108.8
216.988	108.21
217.366	107.9
217.743	109.73
218.121	110.5
218.498	109.74
218.876	109.86
219.253	110.53
219.631	110.21
220.008	110.26
220.385	109.62
220.762	108.07
221.14	107.1
221.517	106.21
221.894	105.06
222.271	103.45
222.648	104.15
223.025	105.06
223.402	105.88
223.78	108.08
224.157	109.32
224.533	110.67
224.91	111.71
225.287	112.08
225.664	112.3
226.041	112.48
226.418	113.09
226.795	113.82
227.171	113.99
227.548	116.41
227.925	117.84
228.301	119.4
228.678	121.19
229.055	121.39
229.431	122.96
229.808	124.8
230.184	125.13
230.561	124.1
230.937	122.88
231.313	122.64
231.69	121.11
232.066	120.75
232.442	120.41
232.819	120.59
233.195	120.81
233.571	119.68
233.947	118.79
234.323	117.72
234.699	116.11
235.075	115.53
235.451	115.62
235.827	114.87
236.203	115.25
236.579	115.28
236.955	116.99
237.331	119.66
237.707	123.24
238.083	125.96
238.459	127.79
238.834	133.6
239.21	139.72
239.586	145.96
239.961	151.21
240.337	155.84
240.713	157.75
241.088	158.77
241.464	162.63
241.839	171.85
242.215	185.02
242.59	207.15
242.965	251.89
243.341	340.47
243.716	549.8
244.091	1252.15
244.467	-31100
244.842	-1249.05
245.217	-715.33
245.592	-665.16
245.967	-652.27
246.343	-670.33
246.718	-784.97
247.093	-803.12
247.468	-797.51
247.843	-768.33
248.218	-622.24
248.593	-471.04
248.967	-360.48
249.342	-312.81
249.717	-310.89
250.092	-319.5
250.467	-358.12
250.841	-501.18
251.216	-1107.74
251.591	9597.56
251.965	1023.72
252.34	652.56
252.714	513.47
253.089	440.23
253.463	430.82
253.838	433.78
254.212	464.99
254.587	525.06
254.961	620.33
255.335	1139.55
255.71	-2339.05
256.084	-445.68
256.458	-229.76
256.832	-159.86
257.206	-132.82
257.581	-119.65
257.955	-111.77
258.329	-103.81
258.703	-95.58
259.077	-89.38
259.451	-84.09
259.825	-78.53
260.199	-74.78
260.572	-72.07
260.946	-69.9
261.32	-67.93
261.694	-64.01
262.068	-62.7
262.441	-62.09
262.815	-61.78
263.189	-62.92
263.562	-68.3
263.936	-79.22
264.309	-95.59
264.683	-112.6
265.056	-123.85
265.43	-126.94
265.803	-125.66
266.176	-123.03
266.55	-124.05
266.923	-123.13
267.296	-118.21
267.67	-112.91
268.043	-105.24
268.416	-96.53
268.789	-85.88
269.162	-75.56
269.535	-70.34
269.908	-66.75
270.281	-64.71
270.654	-65.7
271.027	-66.98
271.4	-66.65
271.773	-65.57
272.146	-64.32
272.519	-61.61
272.891	-59.52
273.264	-59.46
273.637	-58.59
274.01	-58.31
274.382	-57.7
274.755	-55.58
275.127	-55.61
275.5	-56.77
275.872	-57.07
276.245	-57.56
276.617	-60.57
276.99	-64.93
277.362	-67.24
277.734	-67.12
278.107	-65.16
278.479	-61.25
278.851	-59.81
279.223	-58.14
279.596	-56.35
279.968	-55.88
280.34	-56.55
280.712	-54.53
281.084	-51.21
281.456	-47.15
281.828	-43.06
282.2	-38.77
282.572	-36.29
282.944	-33.79
283.315	-31.84
283.687	-30.42
284.059	-30.22
284.431	-28.81
284.802	-27.82
285.174	-26.9
285.546	-25.55
285.917	-25.41
286.289	-24.37
286.66	-22.79
287.032	-21.77
287.403	-21.38
287.775	-20.29
288.146	-19.52
288.518	-19.34
288.889	-18.59
289.26	-19.03
289.632	-19.59
290.003	-20.49
290.374	-20.95
290.745	-21.17
291.116	-20.55
291.487	-19.77
291.858	-18.01
292.229	-16.95
292.6	-15.55
292.971	-13.83
293.342	-12.32
293.713	-10.54
294.084	-9.44
294.455	-8.86
294.826	-8.11
295.196	-7.79
295.567	-7.66
295.938	-7.2
296.308	-7.02
296.679	-6.57
297.05	-5.49
297.42	-4.63
297.791	-3.77
298.161	-3.06
298.532	-2.35
298.902	-1.86
299.272	-1.12
299.643	-0.9
300.013	-0.51
300.383	0.36
300.754	0.75
301.124	0.76
301.494	1.13
301.864	1.41
302.234	1.66
302.604	1.67
302.974	2.17
303.344	2.93
303.714	3.36
304.084	4.43
304.454	5.14
304.824	5.3
305.194	5.62
305.563	6.23
305.933	6.99
306.303	7.77
306.673	8.51
307.042	9.18
307.412	10.42
307.781	11.44
308.151	11.79
308.521	12.03
308.89	12.57
309.259	13.17
309.629	13.47
309.998	13.84
310.368	14.23
310.737	14.59
311.106	14.82
311.475	15.3
311.845	15.54
312.214	15.68
312.583	16.12
312.952	16.79
313.321	16.94
313.69	17.14
314.059	17.5
314.428	17.49
314.797	17.39
315.166	16.73
315.535	16.11
315.904	16.15
316.272	16.3
316.641	16.25
317.01	16.11
317.379	16.26
317.747	16.64
318.116	16.95
318.484	16.95
318.853	17.57
319.221	17.79
319.59	18.06
319.958	18.31
320.327	18.5
320.695	18.54
321.063	18.85
321.432	18.97
321.8	18.86
322.168	19.76
322.536	20.34
322.905	21.12
323.273	21.69
323.641	22.07
324.009	22.09
324.377	22.33
324.745	22.59
325.113	22.85
325.481	23.18
325.849	23.46
326.216	23.98
326.584	23.97
326.952	24.1
327.32	24.25
327.687	24.3
328.055	24.37
328.423	24.37
328.79	24.66
329.158	24.89
329.525	25.26
329.893	25.23
330.26	25.52
330.628	25.45
330.995	25.84
331.362	25.92
331.73	26.69
332.097	27.16
332.464	27.45
332.831	27.77
333.199	28.08
333.566	28.13
333.933	28.02
334.3	28.16
334.667	28.39
335.034	28.74
335.401	29.14
335.768	29.33
336.135	29.58
336.502	29.71
336.868	30.03
337.235	30.3
337.602	30.48
337.969	30.53
338.335	30.87
338.702	30.95
339.069	31.21
339.435	31.03
339.802	30.97
340.168	31.14
340.535	31.21
340.901	31.16
341.267	31.48
341.634	31.84
342	32.17
342.366	32.45
342.733	32.53
343.099	32.75
343.465	32.91
343.831	33.12
344.197	33.31
344.563	33.47
344.929	33.69
345.295	33.89
345.661	34.21
346.027	34.34
346.393	34.55
346.759	34.71
347.125	34.99
347.491	35.1
347.856	35.28
348.222	35.48
348.588	35.71
348.953	35.8
349.319	36.04
349.684	36.1
350.05	36.11
350.415	36.29
350.781	36.5
351.146	36.75
351.512	36.89
351.877	37.06
352.242	37.12
352.608	37.09
352.973	37.13
353.338	37.14
353.703	37.25
354.068	37.46
354.433	37.56
354.798	37.8
355.164	38.06
355.528	38.13
355.893	38.2
356.258	38.37
356.623	38.47
356.988	38.68
357.353	38.9
357.718	39.28
358.082	39.4
358.447	39.41
358.812	39.51
359.176	39.65
359.541	39.72
359.905	39.76
360.27	39.95
360.634	40.16
360.999	40.29
361.363	40.45
361.728	40.6
362.092	40.75
362.456	40.68
362.821	40.82
363.185	40.97
363.549	41.18
363.913	41.24
364.277	41.37
364.641	41.35
365.005	41.35
365.369	41.41
365.733	41.46
366.097	41.56
366.461	41.67
366.825	41.89
367.189	42.1
367.553	42.35
367.916	42.53
368.28	42.64
368.644	42.77
369.007	42.97
369.371	42.98
369.734	43
370.098	43.26
370.461	43.29
370.825	43.48
371.188	43.63
371.552	43.78
371.915	44.04
372.278	44.17
372.642	44.38
373.005	44.47
373.368	44.71
373.731	44.89
374.094	45
374.457	45.06
374.82	45.09
375.183	45.15
375.546	45.3
375.909	45.44
376.272	45.58
376.635	45.55
376.998	45.64
377.361	45.76
377.723	45.83
378.086	45.97
378.449	46.01
378.811	46.03
379.174	46.07
379.537	46.09
379.899	46.17
380.262	46.25
380.624	46.29
380.987	46.4
381.349	46.47
381.711	46.56
382.074	46.62
382.436	46.74
382.798	46.82
383.16	46.8
383.522	46.89
383.884	46.91
384.247	47.02
384.609	47.1
384.971	47.15
385.333	47.23
385.695	47.27
386.056	47.29
386.418	47.37
386.78	47.46
387.142	47.42
387.504	47.47
387.865	47.49
388.227	47.57
388.589	47.52
388.95	47.58
389.312	47.61
389.673	47.68
390.035	47.71
390.396	47.71
390.758	47.71
391.119	47.7
391.48	47.77
391.842	47.81
392.203	47.8
392.564	47.92
392.925	48
393.286	48.05
393.648	48.1
394.009	48.11
394.37	48.16
394.731	48.24
395.092	48.32
395.452	48.36
395.813	48.4
396.174	48.44
396.535	48.44
396.896	48.52
397.257	48.54
397.617	48.57
397.978	48.65
398.338	48.74
398.699	48.78
399.06	48.79
399.42	48.78
399.781	48.82
400.141	48.78
400.501	48.7
400.862	48.69
401.222	48.71
401.582	48.73
401.943	48.71
402.303	48.71
402.663	48.66
403.023	48.63
403.383	48.59
403.743	48.58
404.103	48.6
404.463	48.51
404.823	48.45
405.183	48.39
405.543	48.34
405.903	48.22
406.262	48.2
406.622	48.18
406.982	48.19
407.342	48.2
407.701	48.13
408.061	48.05
408.42	48.02
408.78	47.91
409.139	47.82
409.499	47.76
409.858	47.71
410.217	47.68
410.577	47.62
410.936	47.52
411.295	47.46
411.655	47.34
412.014	47.25
412.373	47.11
412.732	47.01
413.091	46.9
413.45	46.86
413.809	46.73
414.168	46.56
414.527	46.38
414.886	46.2
415.245	46.05
415.603	45.91
415.962	45.71
416.321	45.56
416.679	45.43
417.038	45.28
417.397	45.09
417.755	44.89
418.114	44.77
418.472	44.66
418.831	44.51
419.189	44.39
419.547	44.27
419.906	44.15
420.264	43.97
420.622	43.84
420.981	43.69
421.339	43.56
421.697	43.38
422.055	43.24
422.413	43.12
422.771	43.02
423.129	42.9
423.487	42.82
423.845	42.72
424.203	42.63
424.56	42.48
424.918	42.38
425.276	42.27
425.634	42.13
425.991	42
426.349	41.9
426.707	41.76
427.064	41.62
427.422	41.48
427.779	41.39
428.137	41.22
428.494	41.01
428.851	40.8
429.209	40.63
429.566	40.44
429.923	40.22
430.28	40.01
430.637	39.85
430.995	39.66
431.352	39.5
431.709	39.32
432.066	39.17
432.423	39.01
432.78	38.85
433.137	38.67
433.493	38.48
433.85	38.28
434.207	38.09
434.564	37.92
434.92	37.73
435.277	37.52
435.634	37.29
435.99	37.09
436.347	36.88
436.703	36.66
437.06	36.4
437.416	36.19
437.773	35.96
438.129	35.78
438.485	35.61
438.841	35.44
439.198	35.28
439.554	35.12
439.91	34.97
440.266	34.81
440.622	34.67
440.978	34.47
441.334	34.27
441.69	34.06
442.046	33.8
442.402	33.55
442.758	33.28
443.113	33.09
443.469	32.85
443.825	32.64
444.181	32.44
444.536	32.26
444.892	32.06
445.247	31.9
445.603	31.74
445.958	31.6
446.314	31.44
446.669	31.31
447.025	31.17
447.38	31.03
447.735	30.88
448.09	30.71
448.446	30.56
448.801	30.4
449.156	30.22
449.511	30.06
449.866	29.89
450.221	29.72
450.576	29.49
450.931	29.28
451.286	29.07
451.641	28.85
451.995	28.65
452.35	28.47
452.705	28.28
453.06	28.09
453.414	27.91
453.769	27.72
454.123	27.53
454.478	27.34
454.832	27.12
455.187	26.9
455.541	26.67
455.896	26.4
456.25	26.14
456.604	25.92
456.958	25.71
457.313	25.55
457.667	25.4
458.021	25.27
458.375	25.16
458.729	25.03
459.083	24.93
459.437	24.83
459.791	24.71
460.145	24.62
460.499	24.49
460.852	24.38
461.206	24.27
461.56	24.16
461.914	24.06
462.267	23.93
462.621	23.83
462.974	23.71
463.328	23.6
463.681	23.46
464.035	23.34
464.388	23.2
464.742	23.01
465.095	22.84
465.448	22.69
465.801	22.54
466.155	22.4
466.508	22.26
466.861	22.13
467.214	21.98
467.567	21.84
467.92	21.71
468.273	21.59
468.626	21.46
468.979	21.32
469.332	21.17
469.684	21.06
470.037	20.93
470.39	20.78
470.743	20.64
471.095	20.52
471.448	20.41
471.8	20.29
472.153	20.21
472.505	20.12
472.858	20.01
473.21	19.87
473.562	19.73
473.915	19.62
474.267	19.49
474.619	19.39
474.971	19.27
475.324	19.17
475.676	19.06
476.028	18.96
476.38	18.87
476.732	18.77
477.084	18.66
477.436	18.55
477.787	18.45
478.139	18.34
478.491	18.21
478.843	18.08
479.195	17.93
479.546	17.72
479.898	17.5
480.249	17.29
480.601	17.13
480.952	16.99
481.304	16.87
481.655	16.78
482.007	16.71
482.358	16.65
482.709	16.58
483.061	16.49
483.412	16.43
483.763	16.34
484.114	16.26
484.465	16.19
484.816	16.12
485.167	16.05
485.518	16
485.869	15.96
486.22	15.91
486.571	15.88
486.922	15.85
487.272	15.77
487.623	15.68
487.974	15.56
488.324	15.46
488.675	15.38
489.025	15.31
489.376	15.24
489.726	15.18
490.077	15.13
490.427	15.1
490.778	15.04
491.128	15
491.478	14.97
491.828	14.93
492.179	14.89
492.529	14.84
492.879	14.8
493.229	14.75
493.579	14.7
493.929	14.64
494.279	14.58
494.629	14.53
494.979	14.49
495.328	14.45
495.678	14.41
496.028	14.39
496.378	14.34
496.727	14.29
497.077	14.24
497.426	14.2
497.776	14.14
498.125	14.1
498.475	14.06
498.824	14.02
499.174	13.96
499.523	13.9
499.872	13.85
500.221	13.81
500.571	13.74
500.92	13.69
501.269	13.64
501.618	13.59
501.967	13.55
502.316	13.49
502.665	13.44
503.014	13.39
503.363	13.33
503.711	13.29
504.06	13.21
504.409	13.14
504.758	13.08
505.106	13.02
505.455	12.97
505.803	12.91
506.152	12.85
506.5	12.81
506.849	12.76
507.197	12.73
507.546	12.67
507.894	12.64
508.242	12.61
508.59	12.57
508.939	12.54
509.287	12.49
509.635	12.46
509.983	12.44
510.331	12.4
510.679	12.36
511.027	12.31
511.375	12.29
511.723	12.29
512.07	12.24
512.418	12.22
512.766	12.19
513.114	12.16
513.461	12.12
513.809	12.09
514.156	12.06
514.504	12.02
514.851	11.97
515.199	11.9
515.546	11.84
515.893	11.8
516.241	11.76
516.588	11.71
516.935	11.68
517.282	11.64
517.63	11.62
517.977	11.57
518.324	11.55
518.671	11.53
519.018	11.51
519.365	11.5
519.711	11.48
520.058	11.44
520.405	11.42
520.752	11.39
521.099	11.33
521.445	11.31
521.792	11.23
522.138	11.2
522.485	11.17
522.832	11.15
523.178	11.13
523.524	11.08
523.871	11.05
524.217	11
524.563	10.91
524.91	10.81
525.256	10.72
525.602	10.64
525.948	10.59
526.294	10.53
526.64	10.49
526.986	10.47
527.332	10.45
527.678	10.41
528.024	10.4
528.37	10.39
528.716	10.38
529.061	10.37
529.407	10.35
529.753	10.32
530.098	10.26
530.444	10.23
530.789	10.2
531.135	10.18
531.48	10.17
531.826	10.17
532.171	10.18
532.516	10.19
532.862	10.19
533.207	10.18
533.552	10.16
533.897	10.14
534.242	10.11
534.587	10.09
534.932	10.09
535.277	10.09
535.622	10.06
535.967	10.06
536.312	10.06
536.657	10.06
537.001	10.05
537.346	10.04
537.691	10.01
538.035	9.97
538.38	9.93
538.724	9.89
539.069	9.85
539.413	9.81
539.758	9.78
540.102	9.76
540.446	9.73
540.791	9.72
541.135	9.72
541.479	9.72
541.823	9.71
542.167	9.68
542.512	9.66
542.856	9.65
543.2	9.62
543.543	9.57
543.887	9.55
544.231	9.53
544.575	9.51
544.919	9.5
545.262	9.52
545.606	9.51
545.95	9.51
546.293	9.51
546.637	9.51
546.98	9.5
547.324	9.49
547.667	9.5
548.011	9.46
548.354	9.45
548.697	9.41
549.04	9.41
549.384	9.37
549.727	9.35
550.07	9.32
550.413	9.31
550.756	9.31
551.099	9.29
551.442	9.25
551.785	9.25
552.128	9.24
552.47	9.18
552.813	9.15
553.156	9.14
553.499	9.11
553.841	9.06
554.184	9.03
554.526	9
554.869	8.95
555.211	8.93
555.554	8.89
555.896	8.86
556.238	8.83
556.581	8.82
556.923	8.79
557.265	8.76
557.607	8.72
557.949	8.69
558.291	8.64
558.633	8.62
558.975	8.59
559.317	8.56
559.659	8.55
560.001	8.5
560.343	8.47
560.685	8.42
561.026	8.4
561.368	8.36
561.71	8.31
562.051	8.27
562.393	8.23
562.734	8.18
563.076	8.11
563.417	8.04
563.759	7.99
564.1	7.96
564.441	7.94
564.782	7.89
565.124	7.85
565.465	7.8
565.806	7.78
566.147	7.73
566.488	7.7
566.829	7.67
567.17	7.65
567.511	7.6
567.851	7.58
568.192	7.56
568.533	7.54
568.874	7.55
569.214	7.54
569.555	7.52
569.895	7.52
570.236	7.52
570.576	7.51
570.917	7.5
571.257	7.47
571.598	7.42
571.938	7.41
572.278	7.42
572.618	7.42
572.959	7.37
573.299	7.34
573.639	7.31
573.979	7.27
574.319	7.26
574.659	7.25
574.999	7.22
575.339	7.19
575.678	7.15
576.018	7.08
576.358	7.04
576.698	6.98
577.037	6.95
577.377	6.9
577.716	6.87
578.056	6.81
578.395	6.77
578.735	6.72
579.074	6.66
579.413	6.58
579.753	6.53
580.092	6.51
580.431	6.5
580.77	6.48
581.109	6.45
581.448	6.41
581.787	6.36
582.126	6.31
582.465	6.28
582.804	6.25
583.143	6.25
583.482	6.21
583.82	6.19
584.159	6.18
584.498	6.12
584.836	6.11
585.175	6.07
585.514	6.07
585.852	6.09
586.19	6.1
586.529	6.13
586.867	6.14
587.205	6.15
587.544	6.15
587.882	6.12
588.22	6.12
588.558	6.1
588.896	6.08
589.234	6.09
589.572	6.06
589.91	6.03
590.248	6
590.586	6.01
590.924	6
591.262	5.97
591.599	6
591.937	5.99
592.275	6.02
592.612	5.99
592.95	5.98
593.287	5.96
593.625	5.94
593.962	5.93
594.299	5.92
594.637	5.91
594.974	5.89
595.311	5.89
595.648	5.89
595.985	5.9
596.322	5.88
596.659	5.89
596.996	5.89
597.333	5.89
597.67	5.85
598.007	5.83
598.344	5.83
598.681	5.79
599.017	5.73
599.354	5.69
599.691	5.67
600.027	5.65
600.364	5.64
600.7	5.62
601.037	5.6
601.373	5.58
601.71	5.6
602.046	5.61
602.382	5.6
602.718	5.57
603.054	5.55
603.391	5.54
603.727	5.52
604.063	5.5
604.399	5.47
604.735	5.47
605.071	5.46
605.406	5.46
605.742	5.48
606.078	5.51
606.414	5.52
606.749	5.53
607.085	5.49
607.421	5.46
607.756	5.44
608.092	5.38
608.427	5.35
608.762	5.26
609.098	5.19
609.433	5.12
609.768	5.08
610.104	5.04
610.439	5.01
610.774	4.99
611.109	5
611.444	4.98
611.779	4.96
612.114	4.93
612.449	4.88
612.784	4.83
613.118	4.78
613.453	4.72
613.788	4.67
614.123	4.61
614.457	4.56
614.792	4.53
615.126	4.48
615.461	4.42
615.795	4.39
616.13	4.44
616.464	4.47
616.798	4.46
617.132	4.45
617.467	4.48
617.801	4.44
618.135	4.41
618.469	4.39
618.803	4.34
619.137	4.3
619.471	4.28
619.805	4.25
620.139	4.19
620.472	4.15
620.806	4.11
621.14	4.1
621.473	4.08
621.807	4.03
622.141	4.05
622.474	4.06
622.808	4.09
623.141	4.06
623.474	4.06
623.808	4.07
624.141	4.08
624.474	4.06
624.807	4.1
625.141	4.09
625.474	4.1
625.807	4.13
626.14	4.15
626.473	4.17
626.806	4.18
627.138	4.21
627.471	4.19
627.804	4.2
628.137	4.21
628.469	4.22
628.802	4.23
629.135	4.22
629.467	4.2
629.8	4.17
630.132	4.15
630.465	4.13
630.797	4.12
631.129	4.12
631.461	4.09
631.794	4.06
632.126	4.06
632.458	4.09
632.79	4.07
633.122	4.06
633.454	4.07
633.786	4.06
634.118	4.05
634.45	4.07
634.781	4.04
635.113	4.01
635.445	3.99
635.777	3.99
636.108	3.99
636.44	3.99
636.771	3.97
637.103	3.93
637.434	3.9
637.765	3.9
638.097	3.84
638.428	3.79
638.759	3.75
639.09	3.68
639.422	3.6
639.753	3.56
640.084	3.54
640.415	3.48
640.746	3.44
641.077	3.41
641.407	3.37
641.738	3.37
642.069	3.36
642.4	3.33
642.73	3.29
643.061	3.24
643.392	3.24
643.722	3.26
644.053	3.22
644.383	3.21
644.713	3.13
645.044	3.13
645.374	3.15
645.704	3.12
646.034	3.15
646.365	3.12
646.695	3.1
647.025	3.09
647.355	3.11
647.685	3.1
648.015	3.14
648.344	3.19
648.674	3.19
649.004	3.23
649.334	3.26
649.663	3.3
649.993	3.32
650.323	3.32
650.652	3.28
650.982	3.3
651.311	3.26
651.64	3.29
651.97	3.27
652.299	3.27
652.628	3.32
652.958	3.33
653.287	3.38
653.616	3.39
653.945	3.37
654.274	3.36
654.603	3.33
654.932	3.32
655.261	3.29
655.589	3.34
655.918	3.36
656.247	3.39
656.576	3.44
656.904	3.49
657.233	3.54
657.561	3.55
657.89	3.58
658.218	3.62
658.547	3.63
658.875	3.68
659.203	3.65
659.532	3.62
659.86	3.61
660.188	3.58
660.516	3.57
660.844	3.58
661.172	3.58
661.5	3.58
661.828	3.53
662.156	3.45
662.484	3.34
662.811	3.27
663.139	3.2
663.467	3.11
663.794	3.02
664.122	2.92
664.45	2.85
664.777	2.79
665.104	2.76
665.432	2.73
665.759	2.67
666.086	2.69
666.414	2.7
666.741	2.72
667.068	2.76
667.395	2.77
667.722	2.74
668.049	2.71
668.376	2.66
668.703	2.69
669.03	2.76
669.357	2.81
669.683	2.84
670.01	2.88
670.337	2.9
670.663	2.9
670.99	2.91
671.317	2.94
671.643	3
671.969	3.01
672.296	3.01
672.622	2.99
672.948	2.97
673.275	2.89
673.601	2.81
673.927	2.76
674.253	2.76
674.579	2.8
674.905	2.8
675.231	2.87
675.557	2.9
675.883	2.9
676.209	2.93
676.534	2.96
676.86	2.94
677.186	2.95
677.511	3
677.837	3.05
678.162	3.04
678.488	2.99
678.813	3.02
679.139	3.06
679.464	3.13
679.789	3.13
680.114	3.18
680.44	3.23
680.765	3.24
681.09	3.24
681.415	3.18
681.74	3.18
682.065	3.17
682.39	3.13
682.714	3.07
683.039	3.02
683.364	2.97
683.689	2.99
684.013	2.98
684.338	2.91
684.662	2.89
684.987	2.87
685.311	2.89
685.636	2.86
685.96	2.82
686.284	2.76
686.608	2.76
686.933	2.68
687.257	2.63
687.581	2.62
687.905	2.64
688.229	2.69
688.553	2.66
688.877	2.63
689.201	2.61
689.524	2.59
689.848	2.6
690.172	2.55
690.496	2.5
690.819	2.41
691.143	2.4
691.466	2.37
691.79	2.35
692.113	2.23
692.436	2.16
692.76	2.09
693.083	1.99
693.406	1.97
693.729	1.99
694.053	2.02
694.376	1.93
694.699	1.95
695.022	2.06
695.344	2.21
695.667	2.38
695.99	2.54
696.313	2.7
696.636	2.82
696.958	2.9
697.281	2.93
697.604	2.99
697.926	3.01
698.249	3.03
698.571	3.06
698.893	3.08
699.216	3.04
699.538	3.04
699.86	3.09
700.182	3.07
700.504	3.08
700.827	3.09
701.149	3.15
701.471	3.05
701.793	2.92
702.114	2.77
702.436	2.56
702.758	2.31
703.08	2.13
703.401	1.89
703.723	1.75
704.045	1.63
704.366	1.52
704.688	1.45
705.009	1.4
705.331	1.37
705.652	1.38
705.973	1.5
706.294	1.52
706.616	1.52
706.937	1.49
707.258	1.44
707.579	1.47
707.9	1.5
708.221	1.65
708.542	1.68
708.863	1.74
709.183	1.85
709.504	1.86
709.825	1.88
710.145	1.95
710.466	2.03
710.787	2.07
711.107	2.09
711.427	2.07
711.748	2.05
712.068	2.01
712.388	2.03
712.709	2.06
713.029	2.11
713.349	2.18
713.669	2.27
713.989	2.35
714.309	2.34
714.629	2.28
714.949	2.17
715.269	2.16
715.589	2.11
715.908	2.12
716.228	2.16
716.548	2.18
716.867	2.24
717.187	2.23
717.506	2.28
717.826	2.35
718.145	2.43
718.465	2.46
718.784	2.55
719.103	2.57
719.422	2.55
719.741	2.54
720.061	2.56
720.38	2.62
720.699	2.64
721.018	2.69
721.336	2.84
721.655	3.01
721.974	3.2
722.293	3.28
722.612	3.31
722.93	3.43
723.249	3.53
723.567	3.54
723.886	3.57
724.204	3.61
724.523	3.74
724.841	3.79
725.159	4.01
725.477	4.17
725.796	4.39
726.114	4.65
726.432	4.79
726.75	4.95
727.068	5.04
727.386	5.2
727.704	5.39
728.022	5.5
728.339	5.64
728.657	5.7
728.975	5.77
729.292	5.91
729.61	6.08
729.928	6.16
730.245	6.22
730.562	6.35
730.88	6.52
731.197	6.67
731.514	6.8
731.832	6.97
732.149	7.17
732.466	7.28
732.783	7.29
733.1	7.52
733.417	7.63
733.734	7.8
734.051	7.85
734.368	7.91
734.684	8.08
735.001	8.06
735.318	8.13
735.634	8.37
735.951	8.57
736.268	8.79
736.584	9.03
736.9	9.27
737.217	9.4
737.533	9.48
737.849	9.51
738.166	9.76
738.482	9.77
738.798	9.74
739.114	9.84
739.43	10
739.746	9.97
740.062	10
740.378	10.1
740.693	10.32
741.009	10.51
741.325	10.63
741.641	10.88
741.956	11.1
742.272	11.28
742.587	11.39
742.903	11.46
743.218	11.66
743.533	11.69
743.849	11.9
744.164	12.04
744.479	12.22
744.794	12.24
745.109	12.35
745.424	12.38
745.739	12.42
746.054	12.59
746.369	12.74
746.684	12.89
746.999	12.86
747.313	12.89
747.628	12.9
747.943	12.91
748.257	13.02
748.572	13.08
748.886	13.09
749.201	13.05
749.515	13.06
749.829	13.08
750.144	13.29
750.458	13.4
750.772	13.47
751.086	13.41
751.4	13.48
751.714	13.54
752.028	13.79
752.342	13.83
752.656	13.82
752.97	13.79
753.284	13.98
753.597	14.2
753.911	14.49
754.225	14.63
754.538	14.71
754.852	14.73
755.165	14.9
755.478	15.07
755.792	15.17
756.105	15.25
756.418	15.26
756.731	15.18
757.045	15.2
757.358	15.44
757.671	15.72
757.984	15.76
758.297	15.91
758.609	15.9
758.922	16.07
759.235	16.09
759.548	16.23
759.86	16.09
760.173	15.94
760.486	15.56
760.798	15.29
761.111	15.27
761.423	15.25
761.735	15.18
762.048	15.08
762.36	15.1
762.672	15.15
762.984	15.22
763.296	15.37
763.608	15.52
763.92	15.47
764.232	15.52
764.544	15.68
764.856	15.67
765.168	15.7
765.48	15.84
765.791	15.96
766.103	16
766.414	16.17
766.726	16.43
767.037	16.76
767.349	17.21
767.66	17.54
767.972	17.85
768.283	18.2
768.594	18.7
768.905	19.06
769.216	19.24
769.527	19.65
769.838	20.09
770.149	20.25
770.46	20.57
770.771	20.71
771.082	20.78
771.393	21.07
771.703	21.43
772.014	21.57
772.324	21.8
772.635	22.19
772.945	22.46
773.256	22.77
773.566	23.04
773.877	23.2
774.187	23.21
774.497	23.29
774.807	23.31
775.117	23.29
775.427	23.46
775.737	23.73
776.047	23.59
776.357	23.34
776.667	23.4
776.977	23.43
777.287	23.5
777.596	23.64
777.906	23.7
778.216	23.72
778.525	23.62
778.835	23.75
779.144	23.69
779.453	23.76
779.763	23.77
780.072	23.98
780.381	24.11
780.69	24.3
781	24.36
781.309	24.71
781.618	24.87
781.927	25.04
782.235	25.15
782.544	25.47
782.853	25.78
783.162	25.85
783.471	26.18
783.779	26.34
784.088	26.37
784.396	26.46
784.705	26.45
785.013	26.54
785.322	26.38
785.63	26.26
785.938	26.09
786.246	25.98
786.554	25.79
786.863	25.83
787.171	25.9
787.479	25.94
787.787	25.95
788.094	25.82
788.402	25.85
788.71	26.03
789.018	25.92
789.326	25.94
789.633	26.34
789.941	26.43
790.248	26.6
790.556	26.72
790.863	26.7
791.171	26.94
791.478	27.25
791.785	27.62
792.092	28.12
792.399	28.45
792.707	28.74
793.014	28.97
793.321	29.14
793.628	28.97
793.934	29.15
794.241	29.16
794.548	29.26
794.855	29.15
795.161	28.88
795.468	28.52
795.775	28.59
796.081	28.44
796.388	28.39
796.694	28.26
797	28.22
797.307	28.52
797.613	28.51
797.919	28.41
798.225	28.13
798.531	28.36
798.837	28.51
799.143	28.46
799.449	28.56
799.755	28.63
800.061	29.26
800.367	29.62
800.672	29.85
800.978	30.07
801.284	30.13
801.589	30.34
801.895	30.92
802.2	30.95
802.506	30.75
802.811	30.52
803.116	30.63
803.421	30.75
803.727	30.69
804.032	31.01
804.337	31.21
804.642	31.31
804.947	31
805.252	31.08
805.556	31.35
805.861	31.52
806.166	31.51
806.471	31.22
806.775	31.22
807.08	31.26
807.384	31.41
807.689	31.62
807.993	31.64
808.298	31.64
808.602	31.62
808.906	31.88
809.211	32.12
809.515	32.22
809.819	32.38
810.123	32.64
810.427	32.8
810.731	32.56
811.035	32.94
811.338	33.16
811.642	33.06
811.946	33.08
812.25	33.12
812.553	33.36
812.857	33.25
813.16	33.14
813.464	32.93
813.767	33.15
814.07	33.07
814.374	33.37
814.677	33.64
814.98	33.51
815.283	33.44
815.586	33.8
815.889	33.88
816.192	33.71
816.495	33.44
816.798	32.69
817.101	32.55
817.404	32.14
817.706	31.57
818.009	31
818.312	29.86
818.614	28.58
818.917	26.89
819.219	24.93
819.521	22.72
819.824	20.68
820.126	18.93
820.428	17.82
820.73	16.91
821.032	16.22
821.334	15.86
821.636	15.62
821.938	15.26
822.24	15.03
822.542	14.95
822.844	14.88
823.145	14.83
823.447	14.66
823.749	14.56
824.05	14.43
824.352	14.25
824.653	14.19
824.955	14.14
825.256	14.14
825.557	14.28
825.858	14.5
826.16	14.86
826.461	15.35
826.762	15.88
827.063	16.5
827.364	17.03
827.665	17.58
827.965	18.01
828.266	18.67
828.567	19.24
828.868	19.51
829.168	19.82
829.469	20.28
829.769	20.74
830.07	21.09
830.37	21.53
830.67	22.33
830.971	23
831.271	23.57
831.571	23.93
831.871	24.48
832.171	24.93
832.471	25.33
832.771	25.48
833.071	25.76
833.371	26.02
833.671	26.54
833.971	26.68
834.27	26.64
834.57	26.52
834.869	26.37
835.169	26.78
835.468	26.81
835.768	26.56
836.067	26.83
836.367	27.01
836.666	27.73
836.965	28.36
837.264	29.02
837.563	29.85
837.862	30.92
838.161	31.82
838.46	32.9
838.759	33.71
839.058	34.77
839.356	35.62
839.655	36.28
839.954	36.6
840.252	37.48
840.551	38.27
840.849	38.56
841.148	39.36
841.446	39.16
841.744	39.78
842.043	40.88
842.341	41.55
842.639	42.11
842.937	41.81
843.235	42.08
843.533	43.07
843.831	43.96
844.129	44.77
844.427	45.43
844.724	46.06
845.022	47.12
845.32	48.02
845.617	49.11
845.915	50.83
846.212	52.21
846.51	53.07
846.807	53.51
847.104	54.66
847.402	54.52
847.699	55.43
847.996	55.48
848.293	55.52
848.59	55.03
848.887	55.08
849.184	55.96
849.481	56.04
849.778	55.88
850.074	56.58
850.371	57
850.668	57.5
850.964	57.46
851.261	58
851.557	58.65
851.854	58.46
852.15	58.15
852.446	58.16
852.743	57.05
853.039	57.14
853.335	56.82
853.631	57.83
853.927	58.4
854.223	58.52
854.519	58.01
854.815	57.92
855.111	58.33
855.406	57.81
855.702	57.87
855.998	57.92
856.293	57.55
856.589	57.94
856.884	57.99
857.18	58.67
857.475	58.6
857.77	58.58
858.066	58.66
858.361	59.37
858.656	59.36
858.951	59.78
859.246	59.9
859.541	60.9
859.836	60.52
860.131	59.67
860.426	59.56
860.72	61.05
861.015	62.12
861.31	62.37
861.604	62.64
861.899	62.44
862.193	62.44
862.487	62.8
862.782	63.14
863.076	62.98
863.37	63.02
863.664	62.9
863.959	62.32
864.253	62.36
864.547	61.92
864.841	61.35
865.135	61.54
865.428	61.53
865.722	60.58
866.016	60.77
866.31	60.66
866.603	60.37
866.897	59.11
867.19	59.06
867.484	59.13
867.777	59.93
868.07	59.86
868.364	59.68
868.657	59.01
868.95	58.8
869.243	59.75
869.536	59.09
869.829	58.22
870.122	58.36
870.415	58.39
870.708	56.49
871	56.48
871.293	55.98
871.586	56.04
871.878	55.7
872.171	56.27
872.463	56.57
872.756	56.72
873.048	56.69
873.341	55.79
873.633	55.27
873.925	54.33
874.217	54.27
874.509	54.11
874.801	54.24
875.093	53.54
875.385	51.78
875.677	51.98
875.969	53.02
