Data from pcis_p_h3_p4_Reflection_3.txt Node
Date: Wed Jul 12 17:54:11 ART 2017
User: rodoncho
Spectrometer: USB2E3644
Trigger mode: 4
Integration Time (sec): 6.000000E-2
Scans to average: 10
Electric dark correction enabled: true
Nonlinearity correction enabled: false
Boxcar width: 10
XAxis mode: Wavelengths
Number of Pixels in Spectrum: 2048
>>>>>Begin Spectral Data<<<<<
178.315	99.49
178.696	87.06
179.076	63.73
179.457	32
179.838	18.11
180.218	-11.36
180.599	-528.57
180.979	42.86
181.36	132.12
181.74	30.43
182.121	278.95
182.501	110.05
182.881	126.91
183.262	169.86
183.642	-564.52
184.022	42.54
184.402	89.3
184.783	95.14
185.163	97.2
185.543	97.69
185.923	103.94
186.303	99.83
186.683	94.76
187.063	99.46
187.443	95.15
187.823	98.86
188.203	106.22
188.583	111.14
188.963	109.17
189.343	105.31
189.723	102.87
190.102	102.29
190.482	105.7
190.862	107.79
191.242	109.58
191.621	110.54
192.001	106.97
192.38	106.39
192.76	106.63
193.14	106.16
193.519	105.42
193.898	109.52
194.278	112.05
194.657	114.03
195.037	110.97
195.416	108.67
195.795	106.45
196.175	103.97
196.554	101.71
196.933	104.25
197.312	109.37
197.692	110.81
198.071	110.98
198.45	112.49
198.829	113.18
199.208	113.23
199.587	114.86
199.966	114.49
200.345	115.63
200.724	115.92
201.103	117.18
201.482	116.89
201.86	115.63
202.239	117.48
202.618	116.25
202.997	116.71
203.375	118.39
203.754	118.66
204.133	118.59
204.511	119.24
204.89	118.19
205.269	116.17
205.647	114.66
206.026	116.09
206.404	114.64
206.782	112.67
207.161	112.98
207.539	112.66
207.918	113.66
208.296	111.77
208.674	111.49
209.052	111.65
209.431	110.63
209.809	108.73
210.187	106.06
210.565	106.08
210.943	106.53
211.321	106.42
211.699	106.54
212.077	105.33
212.455	104.95
212.833	105.27
213.211	104.28
213.589	106.53
213.967	106.91
214.345	107.65
214.722	107.88
215.1	106.71
215.478	105.09
215.855	104.45
216.233	105.42
216.611	105.52
216.988	105.49
217.366	106.76
217.743	108.13
218.121	108.77
218.498	108.64
218.876	108.02
219.253	109.14
219.631	109.24
220.008	111.19
220.385	111.88
220.762	112.23
221.14	113.78
221.517	111.32
221.894	109.59
222.271	108.59
222.648	108.3
223.025	107.94
223.402	108.59
223.78	108.67
224.157	107.76
224.533	107.69
224.91	106.79
225.287	105.38
225.664	104.25
226.041	104.67
226.418	103.96
226.795	104.15
227.171	105.03
227.548	106.77
227.925	107.2
228.301	109.73
228.678	109.63
229.055	108.34
229.431	109.78
229.808	110.36
230.184	111.04
230.561	113.51
230.937	113.92
231.313	114.53
231.69	114.93
232.066	115.92
232.442	116.72
232.819	118.21
233.195	119.63
233.571	121.05
233.947	121.67
234.323	122.66
234.699	122.17
235.075	121.47
235.451	120.3
235.827	119.27
236.203	116.58
236.579	115.72
236.955	116.3
237.331	117.25
237.707	120.09
238.083	123.17
238.459	126.1
238.834	133.1
239.21	137.96
239.586	143.09
239.961	147.03
240.337	149.32
240.713	150.31
241.088	151.58
241.464	154.21
241.839	159.79
242.215	169.54
242.59	186.32
242.965	213.66
243.341	270.89
243.716	367.08
244.091	551.77
244.467	858.58
244.842	1909.83
245.217	-18892.45
245.592	-4701.86
245.967	-3478.84
246.343	-5186.29
246.718	-12280.72
247.093	-21521.28
247.468	-21329.79
247.843	-4227.2
248.218	-1728.57
248.593	-994.31
248.967	-690.41
249.342	-599.22
249.717	-623.29
250.092	-665.45
250.467	-771.35
250.841	-1149.48
251.216	-9335.51
251.591	1485.27
251.965	749.37
252.34	578.87
252.714	497.09
253.089	411.57
253.463	398.16
253.838	400.04
254.212	423.97
254.587	465.14
254.961	544.74
255.335	812.02
255.71	2234.35
256.084	-1241.53
256.458	-459.62
256.832	-303.84
257.206	-240.49
257.581	-211.06
257.955	-193.92
258.329	-184.41
258.703	-174.33
259.077	-166.64
259.451	-157.4
259.825	-147.76
260.199	-139.69
260.572	-134.79
260.946	-127.97
261.32	-124.53
261.694	-119.86
262.068	-116.18
262.441	-112.95
262.815	-109.95
263.189	-111.48
263.562	-116.52
263.936	-132.23
264.309	-156.36
264.683	-185.32
265.056	-208.6
265.43	-215.3
265.803	-211.09
266.176	-200.9
266.55	-195.64
266.923	-187.94
267.296	-177.67
267.67	-167.99
268.043	-156.45
268.416	-145.27
268.789	-132.77
269.162	-121.19
269.535	-112.85
269.908	-108.07
270.281	-106.04
270.654	-107.5
271.027	-109.75
271.4	-112.31
271.773	-112.55
272.146	-112.1
272.519	-105.83
272.891	-101.9
273.264	-100.91
273.637	-100.39
274.01	-100.72
274.382	-100.46
274.755	-98.05
275.127	-97.59
275.5	-97.27
275.872	-96.05
276.245	-95.51
276.617	-98.66
276.99	-102.57
277.362	-106.72
277.734	-106.76
278.107	-103.45
278.479	-98.85
278.851	-94.43
279.223	-90.17
279.596	-88.1
279.968	-87.19
280.34	-88.39
280.712	-86.65
281.084	-82.14
281.456	-76.36
281.828	-70.44
282.2	-64.5
282.572	-60.61
282.944	-58.03
283.315	-57.13
283.687	-57.05
284.059	-56.62
284.431	-55.65
284.802	-54.73
285.174	-52.94
285.546	-51.73
285.917	-51.38
286.289	-49.95
286.66	-48.44
287.032	-48.02
287.403	-47.04
287.775	-46.26
288.146	-45.71
288.518	-45
288.889	-45.08
289.26	-46
289.632	-46.94
290.003	-48.8
290.374	-51.06
290.745	-51.95
291.116	-51.38
291.487	-50.45
291.858	-49.38
292.229	-48.62
292.6	-46.63
292.971	-45.05
293.342	-42.62
293.713	-40.23
294.084	-38.82
294.455	-38.53
294.826	-37.7
295.196	-37.73
295.567	-37.43
295.938	-37.05
296.308	-37.24
296.679	-36.24
297.05	-35.69
297.42	-35.25
297.791	-34.44
298.161	-33.15
298.532	-32.39
298.902	-31.83
299.272	-31.21
299.643	-30.71
300.013	-29.88
300.383	-29.39
300.754	-29.36
301.124	-29.5
301.494	-29.55
301.864	-29.84
302.234	-29.31
302.604	-29.52
302.974	-29.29
303.344	-28.97
303.714	-28.58
304.084	-27.35
304.454	-26.94
304.824	-25.83
305.194	-25
305.563	-24.23
305.933	-23.18
306.303	-21.85
306.673	-21.18
307.042	-20.71
307.412	-20.14
307.781	-18.95
308.151	-18.41
308.521	-17.69
308.89	-17.52
309.259	-17.07
309.629	-16.56
309.998	-16.59
310.368	-16.37
310.737	-16.07
311.106	-15.68
311.475	-15.21
311.845	-15.15
312.214	-14.63
312.583	-14.31
312.952	-13.95
313.321	-13.67
313.69	-13.85
314.059	-14.33
314.428	-14.3
314.797	-14.37
315.166	-14.67
315.535	-15.24
315.904	-15.41
316.272	-15.68
316.641	-15.87
317.01	-16.09
317.379	-16.25
317.747	-15.75
318.116	-15.24
318.484	-15.1
318.853	-14.67
319.221	-14.43
319.59	-14.25
319.958	-14.43
320.327	-14.31
320.695	-13.96
321.063	-13.7
321.432	-12.96
321.8	-12.41
322.168	-11.57
322.536	-10.94
322.905	-9.89
323.273	-9.34
323.641	-9.01
324.009	-9.09
324.377	-8.76
324.745	-8.47
325.113	-8.11
325.481	-7.73
325.849	-7.28
326.216	-6.44
326.584	-6.03
326.952	-5.76
327.32	-5.34
327.687	-4.83
328.055	-4.45
328.423	-4.34
328.79	-4.3
329.158	-4.35
329.525	-3.81
329.893	-3.69
330.26	-3.43
330.628	-3.73
330.995	-3.48
331.362	-3.06
331.73	-2.22
332.097	-1.68
332.464	-1.23
332.831	-0.83
333.199	-0.51
333.566	-0.08
333.933	-0.05
334.3	0.06
334.667	0.37
335.034	0.53
335.401	0.74
335.768	0.91
336.135	1.23
336.502	1.7
336.868	2.17
337.235	2.32
337.602	2.62
337.969	2.91
338.335	3.41
338.702	3.74
339.069	4.01
339.435	4.25
339.802	4.37
340.168	4.52
340.535	4.72
340.901	4.79
341.267	4.86
341.634	5.18
342	5.39
342.366	5.65
342.733	5.92
343.099	6.07
343.465	6.34
343.831	6.54
344.197	6.68
344.563	6.66
344.929	6.86
345.295	7.09
345.661	7.26
346.027	7.31
346.393	7.28
346.759	7.34
347.125	7.31
347.491	7.47
347.856	7.58
348.222	7.63
348.588	7.81
348.953	7.89
349.319	7.93
349.684	7.99
350.05	8.05
350.415	8.28
350.781	8.53
351.146	8.65
351.512	8.67
351.877	8.75
352.242	8.93
352.608	8.89
352.973	8.8
353.338	8.87
353.703	9.09
354.068	9.34
354.433	9.48
354.798	9.64
355.164	9.7
355.528	9.75
355.893	9.92
356.258	10.08
356.623	10.2
356.988	10.36
357.353	10.56
357.718	10.71
358.082	10.8
358.447	10.68
358.812	10.71
359.176	10.83
359.541	10.96
359.905	11.11
360.27	11.26
360.634	11.46
360.999	11.55
361.363	11.66
361.728	11.65
362.092	11.68
362.456	11.78
362.821	11.89
363.185	11.98
363.549	12.05
363.913	12.11
364.277	12.19
364.641	12.21
365.005	12.29
365.369	12.34
365.733	12.38
366.097	12.63
366.461	12.76
366.825	12.83
367.189	12.96
367.553	13.05
367.916	13.17
368.28	13.24
368.644	13.38
369.007	13.48
369.371	13.66
369.734	13.74
370.098	13.85
370.461	13.99
370.825	14.12
371.188	14.24
371.552	14.34
371.915	14.47
372.278	14.64
372.642	14.8
373.005	14.87
373.368	14.97
373.731	15.01
374.094	15.07
374.457	15.15
374.82	15.2
375.183	15.23
375.546	15.26
375.909	15.31
376.272	15.38
376.635	15.4
376.998	15.43
377.361	15.49
377.723	15.54
378.086	15.64
378.449	15.74
378.811	15.8
379.174	15.86
379.537	15.88
379.899	15.94
380.262	16.01
380.624	16.02
380.987	16.06
381.349	16.07
381.711	16.08
382.074	16.13
382.436	16.21
382.798	16.26
383.16	16.29
383.522	16.35
383.884	16.37
384.247	16.48
384.609	16.52
384.971	16.55
385.333	16.6
385.695	16.59
386.056	16.56
386.418	16.51
386.78	16.57
387.142	16.59
387.504	16.54
387.865	16.48
388.227	16.51
388.589	16.58
388.95	16.64
389.312	16.64
389.673	16.7
390.035	16.69
390.396	16.69
390.758	16.7
391.119	16.69
391.48	16.7
391.842	16.71
392.203	16.71
392.564	16.72
392.925	16.71
393.286	16.68
393.648	16.72
394.009	16.77
394.37	16.76
394.731	16.73
395.092	16.72
395.452	16.73
395.813	16.76
396.174	16.73
396.535	16.72
396.896	16.76
397.257	16.76
397.617	16.77
397.978	16.82
398.338	16.87
398.699	16.9
399.06	16.94
399.42	16.89
399.781	16.93
400.141	16.92
400.501	16.94
400.862	16.98
401.222	16.95
401.582	16.96
401.943	16.95
402.303	16.99
402.663	17.01
403.023	17.02
403.383	17.01
403.743	17
404.103	17.05
404.463	17.08
404.823	17.09
405.183	17.11
405.543	17.12
405.903	17.13
406.262	17.12
406.622	17.13
406.982	17.12
407.342	17.14
407.701	17.16
408.061	17.16
408.42	17.15
408.78	17.18
409.139	17.18
409.499	17.18
409.858	17.19
410.217	17.23
410.577	17.25
410.936	17.27
411.295	17.32
411.655	17.27
412.014	17.24
412.373	17.2
412.732	17.14
413.091	17.09
413.45	17.03
413.809	17
414.168	16.94
414.527	16.89
414.886	16.8
415.245	16.75
415.603	16.67
415.962	16.57
416.321	16.48
416.679	16.39
417.038	16.3
417.397	16.2
417.755	16.11
418.114	16.03
418.472	15.96
418.831	15.9
419.189	15.84
419.547	15.79
419.906	15.73
420.264	15.67
420.622	15.61
420.981	15.56
421.339	15.52
421.697	15.47
422.055	15.42
422.413	15.41
422.771	15.39
423.129	15.37
423.487	15.37
423.845	15.37
424.203	15.38
424.56	15.38
424.918	15.42
425.276	15.44
425.634	15.46
425.991	15.48
426.349	15.49
426.707	15.51
427.064	15.52
427.422	15.57
427.779	15.63
428.137	15.69
428.494	15.75
428.851	15.77
429.209	15.83
429.566	15.86
429.923	15.85
430.28	15.84
430.637	15.88
430.995	15.85
431.352	15.91
431.709	15.89
432.066	15.94
432.423	15.94
432.78	15.96
433.137	15.97
433.493	15.99
433.85	16.03
434.207	16.02
434.564	16.02
434.92	16.03
435.277	16.02
435.634	16.01
435.99	15.98
436.347	15.97
436.703	15.95
437.06	15.97
437.416	15.98
437.773	15.97
438.129	15.96
438.485	15.98
438.841	15.96
439.198	15.95
439.554	15.93
439.91	15.93
440.266	15.91
440.622	15.89
440.978	15.88
441.334	15.83
441.69	15.81
442.046	15.79
442.402	15.74
442.758	15.67
443.113	15.64
443.469	15.62
443.825	15.6
444.181	15.59
444.536	15.56
444.892	15.55
445.247	15.53
445.603	15.51
445.958	15.49
446.314	15.47
446.669	15.45
447.025	15.43
447.38	15.4
447.735	15.37
448.09	15.36
448.446	15.33
448.801	15.32
449.156	15.31
449.511	15.31
449.866	15.31
450.221	15.35
450.576	15.34
450.931	15.34
451.286	15.35
451.641	15.34
451.995	15.33
452.35	15.35
452.705	15.34
453.06	15.35
453.414	15.38
453.769	15.4
454.123	15.41
454.478	15.42
454.832	15.4
455.187	15.4
455.541	15.39
455.896	15.36
456.25	15.34
456.604	15.34
456.958	15.33
457.313	15.34
457.667	15.36
458.021	15.4
458.375	15.45
458.729	15.48
459.083	15.52
459.437	15.56
459.791	15.58
460.145	15.62
460.499	15.67
460.852	15.71
461.206	15.74
461.56	15.79
461.914	15.85
462.267	15.92
462.621	16
462.974	16.08
463.328	16.21
463.681	16.33
464.035	16.44
464.388	16.57
464.742	16.66
465.095	16.74
465.448	16.83
465.801	16.9
466.155	16.96
466.508	17.02
466.861	17.1
467.214	17.17
467.567	17.24
467.92	17.26
468.273	17.3
468.626	17.33
468.979	17.37
469.332	17.39
469.684	17.44
470.037	17.46
470.39	17.5
470.743	17.54
471.095	17.57
471.448	17.6
471.8	17.62
472.153	17.64
472.505	17.66
472.858	17.64
473.21	17.62
473.562	17.61
473.915	17.57
474.267	17.52
474.619	17.49
474.971	17.44
475.324	17.42
475.676	17.36
476.028	17.34
476.38	17.29
476.732	17.24
477.084	17.18
477.436	17.1
477.787	17.04
478.139	16.96
478.491	16.88
478.843	16.78
479.195	16.66
479.546	16.52
479.898	16.34
480.249	16.19
480.601	16.07
480.952	15.98
481.304	15.93
481.655	15.89
482.007	15.84
482.358	15.82
482.709	15.79
483.061	15.77
483.412	15.74
483.763	15.72
484.114	15.69
484.465	15.68
484.816	15.68
485.167	15.67
485.518	15.67
485.869	15.68
486.22	15.69
486.571	15.72
486.922	15.75
487.272	15.8
487.623	15.87
487.974	15.94
488.324	16.02
488.675	16.08
489.025	16.15
489.376	16.23
489.726	16.29
490.077	16.36
490.427	16.44
490.778	16.53
491.128	16.64
491.478	16.77
491.828	16.91
492.179	17.04
492.529	17.2
492.879	17.35
493.229	17.49
493.579	17.63
493.929	17.75
494.279	17.88
494.629	18.03
494.979	18.22
495.328	18.42
495.678	18.66
496.028	18.91
496.378	19.13
496.727	19.3
497.077	19.47
497.426	19.66
497.776	19.81
498.125	19.97
498.475	20.13
498.824	20.27
499.174	20.41
499.523	20.58
499.872	20.72
500.221	20.89
500.571	21.06
500.92	21.22
501.269	21.37
501.618	21.53
501.967	21.69
502.316	21.85
502.665	22.01
503.014	22.15
503.363	22.27
503.711	22.4
504.06	22.53
504.409	22.67
504.758	22.77
505.106	22.89
505.455	22.99
505.803	23.09
506.152	23.15
506.5	23.22
506.849	23.3
507.197	23.36
507.546	23.44
507.894	23.5
508.242	23.57
508.59	23.64
508.939	23.7
509.287	23.75
509.635	23.81
509.983	23.86
510.331	23.92
510.679	24.01
511.027	24.06
511.375	24.13
511.723	24.17
512.07	24.22
512.418	24.27
512.766	24.31
513.114	24.36
513.461	24.42
513.809	24.49
514.156	24.5
514.504	24.55
514.851	24.56
515.199	24.58
515.546	24.61
515.893	24.64
516.241	24.65
516.588	24.68
516.935	24.69
517.282	24.71
517.63	24.7
517.977	24.7
518.324	24.69
518.671	24.7
519.018	24.73
519.365	24.73
519.711	24.75
520.058	24.76
520.405	24.76
520.752	24.75
521.099	24.75
521.445	24.78
521.792	24.78
522.138	24.79
522.485	24.85
522.832	24.84
523.178	24.86
523.524	24.9
523.871	24.92
524.217	24.93
524.563	24.9
524.91	24.9
525.256	24.91
525.602	24.91
525.948	24.9
526.294	24.84
526.64	24.81
526.986	24.8
527.332	24.8
527.678	24.79
528.024	24.81
528.37	24.81
528.716	24.8
529.061	24.8
529.407	24.8
529.753	24.78
530.098	24.79
530.444	24.8
530.789	24.8
531.135	24.79
531.48	24.8
531.826	24.83
532.171	24.84
532.516	24.83
532.862	24.83
533.207	24.87
533.552	24.91
533.897	24.94
534.242	24.96
534.587	24.97
534.932	25
535.277	25.01
535.622	25.03
535.967	25.06
536.312	25.08
536.657	25.11
537.001	25.11
537.346	25.09
537.691	25.09
538.035	25.08
538.38	25.08
538.724	25.04
539.069	25.02
539.413	25
539.758	25.02
540.102	25.01
540.446	24.97
540.791	24.98
541.135	24.99
541.479	25
541.823	25
542.167	25
542.512	24.97
542.856	24.96
543.2	24.95
543.543	24.94
543.887	24.93
544.231	24.95
544.575	24.98
544.919	24.97
545.262	25
545.606	25
545.95	25.04
546.293	25.06
546.637	25.09
546.98	25.09
547.324	25.1
547.667	25.13
548.011	25.13
548.354	25.11
548.697	25.09
549.04	25.07
549.384	25.07
549.727	25.09
550.07	25.09
550.413	25.09
550.756	25.1
551.099	25.13
551.442	25.13
551.785	25.12
552.128	25.1
552.47	25.06
552.813	25.06
553.156	25.04
553.499	25.01
553.841	24.99
554.184	25
554.526	25
554.869	24.98
555.211	25
555.554	25
555.896	24.97
556.238	24.94
556.581	24.93
556.923	24.91
557.265	24.89
557.607	24.84
557.949	24.83
558.291	24.76
558.633	24.69
558.975	24.63
559.317	24.63
559.659	24.59
560.001	24.57
560.343	24.54
560.685	24.51
561.026	24.49
561.368	24.42
561.71	24.4
562.051	24.37
562.393	24.32
562.734	24.27
563.076	24.27
563.417	24.25
563.759	24.23
564.1	24.2
564.441	24.18
564.782	24.16
565.124	24.14
565.465	24.12
565.806	24.11
566.147	24.1
566.488	24.07
566.829	24.04
567.17	23.99
567.511	23.96
567.851	23.94
568.192	23.91
568.533	23.88
568.874	23.88
569.214	23.89
569.555	23.87
569.895	23.85
570.236	23.81
570.576	23.8
570.917	23.76
571.257	23.75
571.598	23.71
571.938	23.7
572.278	23.69
572.618	23.7
572.959	23.69
573.299	23.68
573.639	23.66
573.979	23.62
574.319	23.6
574.659	23.58
574.999	23.55
575.339	23.54
575.678	23.55
576.018	23.46
576.358	23.4
576.698	23.36
577.037	23.37
577.377	23.37
577.716	23.36
578.056	23.35
578.395	23.33
578.735	23.3
579.074	23.24
579.413	23.2
579.753	23.16
580.092	23.16
580.431	23.14
580.77	23.15
581.109	23.17
581.448	23.14
581.787	23.14
582.126	23.14
582.465	23.09
582.804	23.03
583.143	23.02
583.482	23.02
583.82	22.95
584.159	22.89
584.498	22.85
584.836	22.8
585.175	22.76
585.514	22.74
585.852	22.76
586.19	22.76
586.529	22.75
586.867	22.74
587.205	22.74
587.544	22.73
587.882	22.7
588.22	22.67
588.558	22.69
588.896	22.68
589.234	22.64
589.572	22.64
589.91	22.62
590.248	22.63
590.586	22.64
590.924	22.66
591.262	22.67
591.599	22.69
591.937	22.67
592.275	22.69
592.612	22.67
592.95	22.64
593.287	22.66
593.625	22.67
593.962	22.67
594.299	22.64
594.637	22.61
594.974	22.61
595.311	22.6
595.648	22.62
595.985	22.6
596.322	22.59
596.659	22.57
596.996	22.56
597.333	22.53
597.67	22.48
598.007	22.47
598.344	22.44
598.681	22.4
599.017	22.38
599.354	22.33
599.691	22.34
600.027	22.3
600.364	22.29
600.7	22.26
601.037	22.23
601.373	22.2
601.71	22.2
602.046	22.2
602.382	22.24
602.718	22.19
603.054	22.18
603.391	22.18
603.727	22.17
604.063	22.19
604.399	22.19
604.735	22.19
605.071	22.18
605.406	22.21
605.742	22.23
606.078	22.25
606.414	22.26
606.749	22.26
607.085	22.29
607.421	22.25
607.756	22.23
608.092	22.22
608.427	22.18
608.762	22.17
609.098	22.14
609.433	22.05
609.768	22.06
610.104	22.01
610.439	22.01
610.774	22.01
611.109	21.97
611.444	21.95
611.779	21.98
612.114	21.98
612.449	21.93
612.784	21.85
613.118	21.8
613.453	21.81
613.788	21.74
614.123	21.71
614.457	21.7
614.792	21.67
615.126	21.56
615.461	21.58
615.795	21.5
616.13	21.5
616.464	21.53
616.798	21.48
617.132	21.5
617.467	21.47
617.801	21.42
618.135	21.44
618.469	21.46
618.803	21.41
619.137	21.41
619.471	21.38
619.805	21.42
620.139	21.37
620.472	21.31
620.806	21.3
621.14	21.21
621.473	21.19
621.807	21.12
622.141	21.18
622.474	21.17
622.808	21.16
623.141	21.14
623.474	21.14
623.808	21.17
624.141	21.17
624.474	21.21
624.807	21.27
625.141	21.25
625.474	21.24
625.807	21.19
626.14	21.14
626.473	21.16
626.806	21.17
627.138	21.19
627.471	21.2
627.804	21.2
628.137	21.23
628.469	21.22
628.802	21.24
629.135	21.17
629.467	21.16
629.8	21.19
630.132	21.22
630.465	21.22
630.797	21.22
631.129	21.21
631.461	21.18
631.794	21.15
632.126	21.09
632.458	21.05
632.79	21.07
633.122	21.12
633.454	21.12
633.786	21.09
634.118	21.08
634.45	21.1
634.781	21.13
635.113	21.11
635.445	21.1
635.777	21.11
636.108	21.17
636.44	21.16
636.771	21.08
637.103	21.05
637.434	21.01
637.765	21
638.097	20.97
638.428	20.89
638.759	20.84
639.09	20.85
639.422	20.86
639.753	20.86
640.084	20.84
640.415	20.84
640.746	20.86
641.077	20.78
641.407	20.79
641.738	20.74
642.069	20.73
642.4	20.74
642.73	20.74
643.061	20.67
643.392	20.73
643.722	20.8
644.053	20.75
644.383	20.75
644.713	20.73
645.044	20.72
645.374	20.78
645.704	20.77
646.034	20.77
646.365	20.77
646.695	20.74
647.025	20.72
647.355	20.69
647.685	20.66
648.015	20.74
648.344	20.66
648.674	20.68
649.004	20.74
649.334	20.75
649.663	20.77
649.993	20.83
650.323	20.8
650.652	20.74
650.982	20.75
651.311	20.77
651.64	20.81
651.97	20.79
652.299	20.79
652.628	20.81
652.958	20.84
653.287	20.86
653.616	20.88
653.945	20.91
654.274	20.9
654.603	20.94
654.932	20.93
655.261	20.96
655.589	20.99
655.918	21.03
656.247	21.08
656.576	21.1
656.904	21.14
657.233	21.21
657.561	21.26
657.89	21.26
658.218	21.23
658.547	21.2
658.875	21.22
659.203	21.22
659.532	21.2
659.86	21.17
660.188	21.13
660.516	21.15
660.844	21.04
661.172	21.06
661.5	21
661.828	20.99
662.156	20.91
662.484	20.86
662.811	20.74
663.139	20.65
663.467	20.6
663.794	20.5
664.122	20.39
664.45	20.36
664.777	20.39
665.104	20.46
665.432	20.38
665.759	20.38
666.086	20.36
666.414	20.41
666.741	20.38
667.068	20.37
667.395	20.35
667.722	20.42
668.049	20.44
668.376	20.42
668.703	20.4
669.03	20.47
669.357	20.44
669.683	20.52
670.01	20.52
670.337	20.51
670.663	20.53
670.99	20.53
671.317	20.52
671.643	20.51
671.969	20.45
672.296	20.51
672.622	20.49
672.948	20.45
673.275	20.35
673.601	20.42
673.927	20.49
674.253	20.53
674.579	20.53
674.905	20.54
675.231	20.6
675.557	20.63
675.883	20.65
676.209	20.72
676.534	20.73
676.86	20.74
677.186	20.76
677.511	20.85
677.837	20.91
678.162	20.95
678.488	20.91
678.813	20.92
679.139	20.95
679.464	20.99
679.789	21.05
680.114	21.09
680.44	21.05
680.765	21
681.09	20.98
681.415	20.93
681.74	20.88
682.065	20.9
682.39	20.9
682.714	20.89
683.039	20.89
683.364	20.85
683.689	20.83
684.013	20.82
684.338	20.73
684.662	20.7
684.987	20.6
685.311	20.58
685.636	20.58
685.96	20.56
686.284	20.51
686.608	20.5
686.933	20.45
687.257	20.46
687.581	20.49
687.905	20.45
688.229	20.55
688.553	20.56
688.877	20.55
689.201	20.57
689.524	20.49
689.848	20.42
690.172	20.41
690.496	20.45
690.819	20.41
691.143	20.39
691.466	20.35
691.79	20.35
692.113	20.33
692.436	20.31
692.76	20.31
693.083	20.33
693.406	20.29
693.729	20.38
694.053	20.39
694.376	20.42
694.699	20.52
695.022	20.54
695.344	20.56
695.667	20.66
695.99	20.7
696.313	20.87
696.636	20.96
696.958	20.97
697.281	21.01
697.604	21.06
697.926	21.1
698.249	21.1
698.571	21.1
698.893	21.09
699.216	21.05
699.538	21
699.86	20.94
700.182	20.88
700.504	20.84
700.827	20.87
701.149	20.78
701.471	20.65
701.793	20.61
702.114	20.57
702.436	20.41
702.758	20.29
703.08	20.11
703.401	19.95
703.723	19.88
704.045	19.74
704.366	19.69
704.688	19.61
705.009	19.63
705.331	19.62
705.652	19.62
705.973	19.7
706.294	19.7
706.616	19.7
706.937	19.77
707.258	19.82
707.579	19.83
707.9	19.91
708.221	20.06
708.542	20.06
708.863	20.08
709.183	20.06
709.504	20.02
709.825	20.06
710.145	20.18
710.466	20.24
710.787	20.25
711.107	20.27
711.427	20.21
711.748	20.16
712.068	20.13
712.388	20.21
712.709	20.22
713.029	20.28
713.349	20.32
713.669	20.36
713.989	20.39
714.309	20.35
714.629	20.32
714.949	20.24
715.269	20.17
715.589	20.13
715.908	20.17
716.228	20.23
716.548	20.18
716.867	20.1
717.187	20.09
717.506	20.11
717.826	20.07
718.145	20.17
718.465	20.16
718.784	20.34
719.103	20.27
719.422	20.23
719.741	20.22
720.061	20.28
720.38	20.34
720.699	20.44
721.018	20.53
721.336	20.72
721.655	20.89
721.974	21.07
722.293	21.18
722.612	21.25
722.93	21.26
723.249	21.33
723.567	21.49
723.886	21.61
724.204	21.73
724.523	21.91
724.841	21.97
725.159	22.18
725.477	22.2
725.796	22.44
726.114	22.71
726.432	22.83
726.75	22.87
727.068	22.8
727.386	22.89
727.704	22.93
728.022	22.9
728.339	22.81
728.657	22.91
728.975	22.95
729.292	23.04
729.61	23.2
729.928	23.33
730.245	23.35
730.562	23.41
730.88	23.53
731.197	23.69
731.514	23.76
731.832	23.87
732.149	24.05
732.466	24.04
732.783	23.99
733.1	24.08
733.417	24.32
733.734	24.6
734.051	24.61
734.368	24.67
734.684	24.8
735.001	24.94
735.318	25.01
735.634	25.19
735.951	25.29
736.268	25.51
736.584	25.74
736.9	25.98
737.217	26.15
737.533	26.12
737.849	26.15
738.166	26.38
738.482	26.4
738.798	26.48
739.114	26.7
739.43	26.97
739.746	27.17
740.062	27.2
740.378	27.27
740.693	27.5
741.009	27.79
741.325	27.89
741.641	28.06
741.956	28.21
742.272	28.45
742.587	28.55
742.903	28.55
743.218	28.66
743.533	28.55
743.849	28.46
744.164	28.69
744.479	28.73
744.794	28.73
745.109	28.78
745.424	28.72
745.739	28.73
746.054	28.85
746.369	29.05
746.684	29.09
746.999	29.15
747.313	29.17
747.628	28.96
747.943	29.05
748.257	29.05
748.572	29.1
748.886	29.18
749.201	29.41
749.515	29.53
749.829	29.52
750.144	29.84
750.458	30.02
750.772	30.01
751.086	30.05
751.4	30.09
751.714	30.33
752.028	30.61
752.342	30.62
752.656	30.59
752.97	30.41
753.284	30.5
753.597	30.68
753.911	30.74
754.225	31.02
754.538	31.22
754.852	31.49
755.165	31.52
755.478	31.46
755.792	31.34
756.105	31.38
756.418	31.54
756.731	31.55
757.045	31.78
757.358	31.9
757.671	32.11
757.984	32.25
758.297	32.3
758.609	32.38
758.922	32.54
759.235	32.51
759.548	32.63
759.86	32.67
760.173	32.4
760.486	32.17
760.798	31.95
761.111	31.87
761.423	31.7
761.735	31.66
762.048	31.71
762.36	31.79
762.672	31.82
762.984	31.8
763.296	31.71
763.608	31.62
763.92	31.65
764.232	31.71
764.544	31.74
764.856	31.81
765.168	31.81
765.48	31.91
765.791	31.98
766.103	32.07
766.414	32.16
766.726	32.45
767.037	32.68
767.349	32.99
767.66	33.23
767.972	33.65
768.283	34.08
768.594	34.29
768.905	34.55
769.216	34.8
769.527	34.98
769.838	35.33
770.149	35.52
770.46	35.95
770.771	36.03
771.082	36.3
771.393	36.41
771.703	36.48
772.014	36.57
772.324	36.8
772.635	37.04
772.945	37.16
773.256	37.28
773.566	37.46
773.877	37.54
774.187	37.47
774.497	37.42
774.807	37.28
775.117	37.49
775.427	37.61
775.737	37.91
776.047	38.1
776.357	38.26
776.667	38.47
776.977	38.32
777.287	38.51
777.596	38.55
777.906	38.55
778.216	38.59
778.525	38.62
778.835	38.73
779.144	38.63
779.453	38.63
779.763	38.76
780.072	39.02
780.381	39.19
780.69	39.37
781	39.44
781.309	39.63
781.618	39.78
781.927	39.82
782.235	39.72
782.544	39.85
782.853	39.98
783.162	40.23
783.471	40.32
783.779	40.38
784.088	40.64
784.396	40.74
784.705	40.78
785.013	40.78
785.322	40.7
785.63	40.65
785.938	40.7
786.246	40.49
786.554	40.45
786.863	40.67
787.171	40.63
787.479	40.74
787.787	40.75
788.094	40.53
788.402	40.74
788.71	40.71
789.018	40.71
789.326	40.7
789.633	40.77
789.941	40.96
790.248	41.12
790.556	40.95
790.863	41.11
791.171	41.19
791.478	41.4
791.785	41.47
792.092	41.83
792.399	42.01
792.707	42.31
793.014	42.47
793.321	42.54
793.628	42.95
793.934	42.96
794.241	43.05
794.548	43.26
794.855	42.93
795.161	42.82
795.468	42.8
795.775	42.66
796.081	42.38
796.388	42.21
796.694	42.18
797	42.35
797.307	42.36
797.613	42.61
797.919	42.68
798.225	42.98
798.531	42.86
798.837	43.25
799.143	43.4
799.449	43.59
799.755	43.65
800.061	43.87
800.367	44.07
800.672	44.13
800.978	44.25
801.284	44.74
801.589	45.14
801.895	45.33
802.2	45.8
802.506	46.1
802.811	46.1
803.116	46.24
803.421	46.08
803.727	46.29
804.032	46.32
804.337	46.11
804.642	46
804.947	46.18
805.252	46.3
805.556	46.29
805.861	46.28
806.166	46.21
806.471	45.8
806.775	45.96
807.08	46.32
807.384	46.41
807.689	46.42
807.993	46.58
808.298	46.75
808.602	46.64
808.906	46.72
809.211	47.03
809.515	46.82
809.819	47.04
810.123	47.02
810.427	46.88
810.731	47.31
811.035	47.54
811.338	47.88
811.642	47.85
811.946	48
812.25	48.09
812.553	48.1
812.857	48.27
813.16	48.44
813.464	48.46
813.767	48.61
814.07	48.57
814.374	48.56
814.677	48.44
814.98	48.47
815.283	48.3
815.586	48.15
815.889	48.08
816.192	47.89
816.495	47.84
816.798	47.7
817.101	47.37
817.404	46.66
817.706	45.78
818.009	44.95
818.312	43.94
818.614	42.97
818.917	41.52
819.219	39.69
819.521	37.91
819.824	36.36
820.126	35.11
820.428	34.35
820.73	33.47
821.032	32.97
821.334	32.53
821.636	32.32
821.938	32.25
822.24	32.12
822.542	32.07
822.844	31.96
823.145	31.9
823.447	31.86
823.749	31.81
824.05	31.74
824.352	31.62
824.653	31.6
824.955	31.59
825.256	31.61
825.557	31.69
825.858	31.88
826.16	32.11
826.461	32.47
826.762	32.71
827.063	33.19
827.364	33.67
827.665	34.17
827.965	34.55
828.266	34.73
828.567	35.21
828.868	35.54
829.168	35.84
829.469	36.22
829.769	36.33
830.07	36.79
830.37	37
830.67	37.48
830.971	37.84
831.271	38.29
831.571	38.53
831.871	38.93
832.171	39.15
832.471	39.24
832.771	39.38
833.071	39.73
833.371	40.09
833.671	40.08
833.971	40.17
834.27	40.16
834.57	40.33
834.869	40.22
835.169	40.17
835.468	40.32
835.768	40.29
836.067	40.65
836.367	40.72
836.666	41.26
836.965	41.6
837.264	42.3
837.563	42.96
837.862	44.03
838.161	45.1
838.46	45.8
838.759	46.84
839.058	47.62
839.356	48.08
839.655	48.57
839.954	49.11
840.252	50.04
840.551	50.96
840.849	50.93
841.148	51.3
841.446	51.81
841.744	51.87
842.043	52.52
842.341	52.18
842.639	52.28
842.937	52.47
843.235	53.04
843.533	53.33
843.831	53.86
844.129	54.54
844.427	54.91
844.724	56.14
845.022	56.46
845.32	56.81
845.617	57.29
845.915	58.56
846.212	60.14
846.51	60.7
846.807	61.06
847.104	62.44
847.402	63.01
847.699	63.28
847.996	63.68
848.293	63.85
848.59	64.04
848.887	64.48
849.184	64.48
849.481	65.06
849.778	65.94
850.074	66.14
850.371	65.74
850.668	66.03
850.964	65.47
851.261	66.3
851.557	67.02
851.854	67.55
852.15	67.84
852.446	66.86
852.743	66.69
853.039	66.51
853.335	67.32
853.631	66.78
853.927	67.23
854.223	67.7
854.519	67.63
854.815	68.29
855.111	67.66
855.406	68.03
855.702	68.03
855.998	67.41
856.293	67.51
856.589	68.22
856.884	69.13
857.18	70.38
857.475	70.62
857.77	71.48
858.066	72.16
858.361	71.62
858.656	71.48
858.951	71.03
859.246	70.58
859.541	69.97
859.836	70.26
860.131	69.29
860.426	68.27
860.72	67.76
861.015	67.73
861.31	68.21
861.604	67.8
861.899	67.24
862.193	67.2
862.487	66.75
862.782	66.95
863.076	66.44
863.37	65.78
863.664	64.97
863.959	63.54
864.253	62.46
864.547	62.57
864.841	62.77
865.135	62.21
865.428	62.42
865.722	62.17
866.016	62.86
866.31	63.82
866.603	64.7
866.897	66.09
867.19	65.89
867.484	66.04
867.777	66.66
868.07	66.78
868.364	66.93
868.657	66.55
868.95	66.04
869.243	65.3
869.536	64.75
869.829	65
870.122	66.08
870.415	67.51
870.708	67.73
871	67.74
871.293	67.48
871.586	67.85
871.878	68.28
872.171	67.28
872.463	65.78
872.756	65.22
873.048	64.59
873.341	64.39
873.633	64.25
873.925	63.81
874.217	64.02
874.509	64.06
874.801	64.35
875.093	64.78
875.385	64.99
875.677	65.52
875.969	65.74
