Data from pcis_c_h1_p5_Reflection_2.txt Node
Date: Wed Jul 12 17:28:48 ART 2017
User: rodoncho
Spectrometer: USB2E3644
Trigger mode: 4
Integration Time (sec): 6.000000E-2
Scans to average: 10
Electric dark correction enabled: true
Nonlinearity correction enabled: false
Boxcar width: 10
XAxis mode: Wavelengths
Number of Pixels in Spectrum: 2048
>>>>>Begin Spectral Data<<<<<
178.315	-142.86
178.696	-1450
179.076	589.01
179.457	2576.92
179.838	404.88
180.218	153.01
180.599	-43.56
180.979	188.89
181.36	22.61
181.74	6.02
182.121	-24.18
182.501	83.99
182.881	96.25
183.262	118.85
183.642	121
184.022	135.25
184.402	107.69
184.783	99.58
185.163	118.47
185.543	139.18
185.923	151.28
186.303	117.69
186.683	102.91
187.063	101.11
187.443	106.47
187.823	100.4
188.203	97.9
188.583	93.52
188.963	103.27
189.343	100.92
189.723	97.66
190.102	93.22
190.482	99.96
190.862	106.21
191.242	104.06
191.621	100.61
192.001	98.5
192.38	101.21
192.76	102.7
193.14	99.06
193.519	98.06
193.898	100.64
194.278	105.97
194.657	107.55
195.037	108.55
195.416	108.37
195.795	107.46
196.175	108.88
196.554	108.62
196.933	107.7
197.312	108.08
197.692	109.36
198.071	111.32
198.45	108.79
198.829	106.58
199.208	106.48
199.587	106.79
199.966	108.43
200.345	109.38
200.724	110.2
201.103	112.38
201.482	114.2
201.86	113.69
202.239	113.58
202.618	113.48
202.997	113.42
203.375	112.83
203.754	112.18
204.133	110.72
204.511	111.54
204.89	111.23
205.269	111.49
205.647	109.41
206.026	109.05
206.404	108.78
206.782	107.39
207.161	109.35
207.539	108.75
207.918	108.09
208.296	108.46
208.674	107.98
209.052	108.38
209.431	106.86
209.809	106.02
210.187	104.53
210.565	104.3
210.943	103.62
211.321	103.74
211.699	104.08
212.077	103.18
212.455	100.84
212.833	99.37
213.211	98.48
213.589	98.95
213.967	99.69
214.345	99.99
214.722	101.47
215.1	101.24
215.478	101.75
215.855	101.67
216.233	100.13
216.611	100.35
216.988	98.48
217.366	99.41
217.743	99.77
218.121	100.78
218.498	101.21
218.876	101.65
219.253	103.48
219.631	104.87
220.008	105.88
220.385	107.44
220.762	108.71
221.14	110.11
221.517	110.51
221.894	108.43
222.271	107.15
222.648	106.85
223.025	106
223.402	105.51
223.78	105.23
224.157	107.08
224.533	107.87
224.91	109.37
225.287	110.16
225.664	110.92
226.041	110.26
226.418	109.76
226.795	109.89
227.171	109.69
227.548	107.84
227.925	107.32
228.301	108.53
228.678	108.27
229.055	108.08
229.431	107.64
229.808	108.75
230.184	110.02
230.561	110.69
230.937	112.25
231.313	112.97
231.69	112.83
232.066	110.66
232.442	109.39
232.819	109.81
233.195	110.21
233.571	110.73
233.947	111.12
234.323	112.58
234.699	113.82
235.075	114.03
235.451	116.21
235.827	116.75
236.203	116.35
236.579	117.36
236.955	118.53
237.331	121.15
237.707	124.45
238.083	127.97
238.459	130.78
238.834	135.16
239.21	140.9
239.586	147.1
239.961	152.91
240.337	157.1
240.713	159.31
241.088	160.52
241.464	162.08
241.839	165.64
242.215	170.93
242.59	182.38
242.965	207.9
243.341	252.62
243.716	340.63
244.091	487.01
244.467	714.03
244.842	1129.96
245.217	2349.39
245.592	5704.19
245.967	55647.06
246.343	-136085.71
246.718	5345.25
247.093	6830.66
247.468	17554.72
247.843	-8126.96
248.218	-2120.73
248.593	-1083.59
248.967	-743.41
249.342	-630.74
249.717	-584.27
250.092	-571.9
250.467	-633.04
250.841	-928.05
251.216	-4403.69
251.591	1468.91
251.965	715.36
252.34	526.8
252.714	460.35
253.089	410.69
253.463	395.27
253.838	411.31
254.212	439.84
254.587	504.16
254.961	606.48
255.335	928.05
255.71	42747.83
256.084	-702.38
256.458	-340.82
256.832	-235.11
257.206	-193.83
257.581	-173.08
257.955	-161.43
258.329	-155.3
258.703	-145.37
259.077	-134.98
259.451	-127.24
259.825	-121.07
260.199	-115.01
260.572	-113.06
260.946	-108.2
261.32	-104.77
261.694	-101.58
262.068	-99.41
262.441	-98.14
262.815	-97.29
263.189	-97.48
263.562	-104.91
263.936	-122.54
264.309	-150.88
264.683	-181.57
265.056	-201.73
265.43	-210.96
265.803	-207.04
266.176	-194.32
266.55	-191.39
266.923	-183.85
267.296	-175.75
267.67	-162
268.043	-151.68
268.416	-137.65
268.789	-126.24
269.162	-111.85
269.535	-104.68
269.908	-100.24
270.281	-97.15
270.654	-95.87
271.027	-98.38
271.4	-99.7
271.773	-99.37
272.146	-98.03
272.519	-93.77
272.891	-90.21
273.264	-88.71
273.637	-87.83
274.01	-89.66
274.382	-87.92
274.755	-86.09
275.127	-86.05
275.5	-87.03
275.872	-86.48
276.245	-86.62
276.617	-89.25
276.99	-94.96
277.362	-98.46
277.734	-98.32
278.107	-95.86
278.479	-92.39
278.851	-88.42
279.223	-85.08
279.596	-83.74
279.968	-82.5
280.34	-83.69
280.712	-82.78
281.084	-78.6
281.456	-72.55
281.828	-66.42
282.2	-61.47
282.572	-58.43
282.944	-55.28
283.315	-53.89
283.687	-53.35
284.059	-53.08
284.431	-51.96
284.802	-51.29
285.174	-49.65
285.546	-48.23
285.917	-47.98
286.289	-47
286.66	-46.13
287.032	-46.17
287.403	-44.75
287.775	-43.76
288.146	-42.91
288.518	-42.36
288.889	-42.67
289.26	-44.43
289.632	-45.56
290.003	-47.6
290.374	-48.62
290.745	-49.18
291.116	-48.67
291.487	-47.3
291.858	-46.14
292.229	-45.14
292.6	-43.17
292.971	-41.84
293.342	-40.09
293.713	-38.18
294.084	-37.01
294.455	-35.54
294.826	-33.97
295.196	-33.85
295.567	-33.78
295.938	-33.18
296.308	-33.3
296.679	-32.43
297.05	-31.56
297.42	-30.94
297.791	-29.72
298.161	-28.98
298.532	-28.44
298.902	-27.86
299.272	-27.36
299.643	-26.46
300.013	-25.98
300.383	-25.61
300.754	-25.41
301.124	-25.49
301.494	-25.65
301.864	-25.72
302.234	-26.45
302.604	-27.07
302.974	-27.06
303.344	-26.84
303.714	-26.56
304.084	-25.82
304.454	-25.75
304.824	-24.83
305.194	-24.09
305.563	-23.54
305.933	-22.4
306.303	-21.01
306.673	-20.18
307.042	-19.94
307.412	-19.28
307.781	-18.13
308.151	-17.52
308.521	-16.67
308.89	-16.15
309.259	-15.52
309.629	-14.87
309.998	-14.24
310.368	-13.73
310.737	-13.22
311.106	-12.82
311.475	-12.31
311.845	-12.06
312.214	-11.61
312.583	-11.4
312.952	-11.2
313.321	-11.16
313.69	-11.32
314.059	-11.91
314.428	-12.04
314.797	-11.8
315.166	-12.38
315.535	-13.07
315.904	-13.34
316.272	-13.81
316.641	-14.23
317.01	-14.5
317.379	-14.81
317.747	-14.96
318.116	-14.74
318.484	-14.53
318.853	-14.07
319.221	-13.79
319.59	-13.44
319.958	-13.33
320.327	-12.84
320.695	-12.54
321.063	-12.16
321.432	-11.53
321.8	-10.98
322.168	-10.14
322.536	-9.36
322.905	-8.47
323.273	-7.82
323.641	-7.32
324.009	-7.19
324.377	-6.56
324.745	-6.18
325.113	-5.74
325.481	-4.86
325.849	-4.22
326.216	-3.68
326.584	-3.17
326.952	-2.96
327.32	-2.59
327.687	-2.08
328.055	-1.68
328.423	-1.2
328.79	-0.84
329.158	-0.65
329.525	-0.15
329.893	-0.03
330.26	0.18
330.628	0.36
330.995	0.78
331.362	1.42
331.73	2.14
332.097	2.35
332.464	2.75
332.831	2.95
333.199	3.11
333.566	3.27
333.933	3.32
334.3	3.33
334.667	3.58
335.034	3.79
335.401	3.91
335.768	3.8
336.135	3.76
336.502	3.76
336.868	3.98
337.235	4.18
337.602	4.49
337.969	4.75
338.335	5.08
338.702	5.35
339.069	5.3
339.435	5.35
339.802	5.62
340.168	5.88
340.535	6.26
340.901	6.31
341.267	6.49
341.634	6.89
342	7.21
342.366	7.39
342.733	7.52
343.099	7.8
343.465	8.06
343.831	8.45
344.197	8.66
344.563	8.75
344.929	8.85
345.295	9.05
345.661	9.21
346.027	9.31
346.393	9.35
346.759	9.45
347.125	9.49
347.491	9.48
347.856	9.47
348.222	9.44
348.588	9.63
348.953	9.77
349.319	9.8
349.684	9.85
350.05	9.9
350.415	10.04
350.781	10.15
351.146	10.33
351.512	10.36
351.877	10.55
352.242	10.72
352.608	10.84
352.973	10.89
353.338	10.94
353.703	10.95
354.068	11.11
354.433	11.21
354.798	11.39
355.164	11.58
355.528	11.67
355.893	11.71
356.258	11.79
356.623	11.75
356.988	11.85
357.353	11.95
357.718	12.12
358.082	12.17
358.447	12.19
358.812	12.22
359.176	12.29
359.541	12.38
359.905	12.39
360.27	12.37
360.634	12.38
360.999	12.38
361.363	12.58
361.728	12.6
362.092	12.64
362.456	12.65
362.821	12.64
363.185	12.66
363.549	12.78
363.913	12.81
364.277	12.91
364.641	12.95
365.005	12.99
365.369	12.95
365.733	13.01
366.097	13.13
366.461	13.09
366.825	13.12
367.189	13.08
367.553	13.25
367.916	13.41
368.28	13.4
368.644	13.5
369.007	13.46
369.371	13.49
369.734	13.53
370.098	13.58
370.461	13.64
370.825	13.74
371.188	13.79
371.552	13.78
371.915	13.78
372.278	13.81
372.642	13.86
373.005	13.95
373.368	13.97
373.731	13.96
374.094	14.04
374.457	14.05
374.82	14.07
375.183	13.98
375.546	13.96
375.909	14.02
376.272	13.97
376.635	13.93
376.998	13.92
377.361	13.97
377.723	13.94
378.086	13.96
378.449	13.91
378.811	13.92
379.174	13.93
379.537	13.97
379.899	13.96
380.262	13.92
380.624	13.89
380.987	13.85
381.349	13.83
381.711	13.8
382.074	13.81
382.436	13.86
382.798	13.79
383.16	13.7
383.522	13.68
383.884	13.7
384.247	13.8
384.609	13.8
384.971	13.77
385.333	13.81
385.695	13.79
386.056	13.8
386.418	13.74
386.78	13.76
387.142	13.69
387.504	13.62
387.865	13.6
388.227	13.55
388.589	13.54
388.95	13.52
389.312	13.48
389.673	13.38
390.035	13.29
390.396	13.29
390.758	13.3
391.119	13.24
391.48	13.16
391.842	13.1
392.203	13.03
392.564	12.98
392.925	12.92
393.286	12.86
393.648	12.81
394.009	12.74
394.37	12.63
394.731	12.62
395.092	12.57
395.452	12.49
395.813	12.45
396.174	12.4
396.535	12.34
396.896	12.29
397.257	12.28
397.617	12.25
397.978	12.22
398.338	12.18
398.699	12.18
399.06	12.15
399.42	12.06
399.781	12.01
400.141	11.94
400.501	11.9
400.862	11.87
401.222	11.83
401.582	11.82
401.943	11.78
402.303	11.75
402.663	11.72
403.023	11.71
403.383	11.68
403.743	11.64
404.103	11.67
404.463	11.7
404.823	11.73
405.183	11.73
405.543	11.74
405.903	11.73
406.262	11.73
406.622	11.71
406.982	11.73
407.342	11.76
407.701	11.77
408.061	11.76
408.42	11.77
408.78	11.76
409.139	11.73
409.499	11.74
409.858	11.73
410.217	11.72
410.577	11.72
410.936	11.72
411.295	11.72
411.655	11.62
412.014	11.56
412.373	11.49
412.732	11.41
413.091	11.33
413.45	11.23
413.809	11.13
414.168	11.04
414.527	10.92
414.886	10.81
415.245	10.73
415.603	10.61
415.962	10.47
416.321	10.39
416.679	10.3
417.038	10.19
417.397	10.08
417.755	9.98
418.114	9.9
418.472	9.81
418.831	9.74
419.189	9.68
419.547	9.6
419.906	9.52
420.264	9.44
420.622	9.38
420.981	9.32
421.339	9.26
421.697	9.22
422.055	9.17
422.413	9.13
422.771	9.08
423.129	9.07
423.487	9.07
423.845	9.04
424.203	9.04
424.56	9.03
424.918	9.03
425.276	9.03
425.634	9.05
425.991	9.06
426.349	9.05
426.707	9.07
427.064	9.08
427.422	9.1
427.779	9.16
428.137	9.17
428.494	9.21
428.851	9.24
429.209	9.25
429.566	9.28
429.923	9.31
430.28	9.3
430.637	9.31
430.995	9.31
431.352	9.32
431.709	9.33
432.066	9.36
432.423	9.4
432.78	9.4
433.137	9.41
433.493	9.43
433.85	9.46
434.207	9.43
434.564	9.46
434.92	9.48
435.277	9.49
435.634	9.51
435.99	9.5
436.347	9.5
436.703	9.51
437.06	9.51
437.416	9.52
437.773	9.54
438.129	9.53
438.485	9.53
438.841	9.53
439.198	9.53
439.554	9.51
439.91	9.5
440.266	9.48
440.622	9.47
440.978	9.43
441.334	9.4
441.69	9.39
442.046	9.33
442.402	9.25
442.758	9.16
443.113	9.1
443.469	9.06
443.825	9.01
444.181	8.99
444.536	8.96
444.892	8.93
445.247	8.89
445.603	8.87
445.958	8.85
446.314	8.82
446.669	8.78
447.025	8.76
447.38	8.71
447.735	8.67
448.09	8.63
448.446	8.62
448.801	8.58
449.156	8.55
449.511	8.54
449.866	8.54
450.221	8.55
450.576	8.55
450.931	8.54
451.286	8.55
451.641	8.54
451.995	8.54
452.35	8.54
452.705	8.54
453.06	8.55
453.414	8.56
453.769	8.56
454.123	8.56
454.478	8.58
454.832	8.6
455.187	8.6
455.541	8.59
455.896	8.57
456.25	8.56
456.604	8.58
456.958	8.6
457.313	8.62
457.667	8.67
458.021	8.7
458.375	8.75
458.729	8.8
459.083	8.83
459.437	8.88
459.791	8.92
460.145	8.97
460.499	9.01
460.852	9.06
461.206	9.12
461.56	9.18
461.914	9.23
462.267	9.3
462.621	9.41
462.974	9.53
463.328	9.66
463.681	9.81
464.035	9.94
464.388	10.08
464.742	10.2
465.095	10.31
465.448	10.43
465.801	10.53
466.155	10.61
466.508	10.69
466.861	10.77
467.214	10.84
467.567	10.91
467.92	10.98
468.273	11.05
468.626	11.1
468.979	11.16
469.332	11.19
469.684	11.23
470.037	11.26
470.39	11.3
470.743	11.33
471.095	11.37
471.448	11.4
471.8	11.42
472.153	11.42
472.505	11.42
472.858	11.41
473.21	11.37
473.562	11.34
473.915	11.27
474.267	11.21
474.619	11.14
474.971	11.06
475.324	10.99
475.676	10.88
476.028	10.81
476.38	10.73
476.732	10.65
477.084	10.56
477.436	10.45
477.787	10.34
478.139	10.22
478.491	10.11
478.843	9.99
479.195	9.86
479.546	9.67
479.898	9.44
480.249	9.25
480.601	9.09
480.952	8.98
481.304	8.91
481.655	8.85
482.007	8.81
482.358	8.78
482.709	8.75
483.061	8.73
483.412	8.7
483.763	8.68
484.114	8.65
484.465	8.63
484.816	8.62
485.167	8.61
485.518	8.62
485.869	8.62
486.22	8.63
486.571	8.64
486.922	8.69
487.272	8.75
487.623	8.82
487.974	8.9
488.324	8.99
488.675	9.07
489.025	9.15
489.376	9.23
489.726	9.31
490.077	9.39
490.427	9.47
490.778	9.57
491.128	9.7
491.478	9.86
491.828	10.03
492.179	10.22
492.529	10.41
492.879	10.6
493.229	10.79
493.579	10.99
493.929	11.19
494.279	11.39
494.629	11.61
494.979	11.9
495.328	12.24
495.678	12.6
496.028	12.98
496.378	13.34
496.727	13.71
497.077	14.06
497.426	14.41
497.776	14.75
498.125	15.09
498.475	15.42
498.824	15.76
499.174	16.11
499.523	16.47
499.872	16.87
500.221	17.3
500.571	17.75
500.92	18.2
501.269	18.64
501.618	19.09
501.967	19.58
502.316	20.03
502.665	20.48
503.014	20.94
503.363	21.4
503.711	21.85
504.06	22.28
504.409	22.71
504.758	23.1
505.106	23.5
505.455	23.9
505.803	24.28
506.152	24.61
506.5	24.92
506.849	25.21
507.197	25.47
507.546	25.76
507.894	26.05
508.242	26.31
508.59	26.6
508.939	26.86
509.287	27.1
509.635	27.34
509.983	27.56
510.331	27.75
510.679	27.94
511.027	28.13
511.375	28.29
511.723	28.48
512.07	28.65
512.418	28.84
512.766	29
513.114	29.15
513.461	29.32
513.809	29.5
514.156	29.66
514.504	29.84
514.851	29.98
515.199	30.1
515.546	30.24
515.893	30.35
516.241	30.44
516.588	30.54
516.935	30.6
517.282	30.65
517.63	30.72
517.977	30.77
518.324	30.84
518.671	30.93
519.018	30.97
519.365	31.02
519.711	31.07
520.058	31.13
520.405	31.17
520.752	31.21
521.099	31.26
521.445	31.32
521.792	31.34
522.138	31.39
522.485	31.44
522.832	31.51
523.178	31.56
523.524	31.62
523.871	31.66
524.217	31.73
524.563	31.76
524.91	31.76
525.256	31.81
525.602	31.84
525.948	31.81
526.294	31.79
526.64	31.8
526.986	31.8
527.332	31.82
527.678	31.83
528.024	31.83
528.37	31.84
528.716	31.83
529.061	31.84
529.407	31.85
529.753	31.84
530.098	31.8
530.444	31.79
530.789	31.8
531.135	31.8
531.48	31.8
531.826	31.82
532.171	31.85
532.516	31.83
532.862	31.82
533.207	31.86
533.552	31.9
533.897	31.92
534.242	31.93
534.587	31.92
534.932	31.93
535.277	31.92
535.622	31.92
535.967	31.93
536.312	31.95
536.657	31.96
537.001	31.98
537.346	32
537.691	32.01
538.035	31.96
538.38	31.93
538.724	31.9
539.069	31.87
539.413	31.85
539.758	31.84
540.102	31.83
540.446	31.8
540.791	31.8
541.135	31.78
541.479	31.77
541.823	31.76
542.167	31.74
542.512	31.74
542.856	31.7
543.2	31.68
543.543	31.65
543.887	31.65
544.231	31.64
544.575	31.66
544.919	31.64
545.262	31.64
545.606	31.63
545.95	31.63
546.293	31.63
546.637	31.62
546.98	31.64
547.324	31.63
547.667	31.63
548.011	31.59
548.354	31.57
548.697	31.54
549.04	31.5
549.384	31.48
549.727	31.47
550.07	31.47
550.413	31.44
550.756	31.44
551.099	31.41
551.442	31.37
551.785	31.31
552.128	31.29
552.47	31.28
552.813	31.23
553.156	31.18
553.499	31.15
553.841	31.08
554.184	31.03
554.526	30.98
554.869	30.91
555.211	30.88
555.554	30.83
555.896	30.81
556.238	30.8
556.581	30.76
556.923	30.72
557.265	30.68
557.607	30.7
557.949	30.65
558.291	30.57
558.633	30.54
558.975	30.49
559.317	30.45
559.659	30.43
560.001	30.41
560.343	30.41
560.685	30.36
561.026	30.34
561.368	30.3
561.71	30.23
562.051	30.2
562.393	30.16
562.734	30.11
563.076	30.05
563.417	29.98
563.759	29.97
564.1	29.94
564.441	29.9
564.782	29.81
565.124	29.77
565.465	29.74
565.806	29.69
566.147	29.69
566.488	29.66
566.829	29.57
567.17	29.5
567.511	29.45
567.851	29.41
568.192	29.37
568.533	29.33
568.874	29.3
569.214	29.26
569.555	29.22
569.895	29.19
570.236	29.18
570.576	29.15
570.917	29.06
571.257	28.99
571.598	28.93
571.938	28.88
572.278	28.85
572.618	28.84
572.959	28.82
573.299	28.78
573.639	28.73
573.979	28.7
574.319	28.69
574.659	28.64
574.999	28.62
575.339	28.56
575.678	28.52
576.018	28.47
576.358	28.43
576.698	28.39
577.037	28.36
577.377	28.29
577.716	28.25
578.056	28.27
578.395	28.24
578.735	28.23
579.074	28.2
579.413	28.13
579.753	28.05
580.092	27.99
580.431	27.96
580.77	27.95
581.109	27.95
581.448	27.92
581.787	27.89
582.126	27.84
582.465	27.81
582.804	27.8
583.143	27.77
583.482	27.71
583.82	27.65
584.159	27.58
584.498	27.57
584.836	27.55
585.175	27.52
585.514	27.51
585.852	27.48
586.19	27.46
586.529	27.46
586.867	27.45
587.205	27.42
587.544	27.4
587.882	27.33
588.22	27.33
588.558	27.24
588.896	27.23
589.234	27.2
589.572	27.15
589.91	27.1
590.248	27.1
590.586	27.13
590.924	27.14
591.262	27.14
591.599	27.11
591.937	27.06
592.275	27
592.612	26.96
592.95	26.93
593.287	26.92
593.625	26.85
593.962	26.85
594.299	26.85
594.637	26.82
594.974	26.81
595.311	26.77
595.648	26.8
595.985	26.75
596.322	26.72
596.659	26.72
596.996	26.73
597.333	26.64
597.67	26.59
598.007	26.56
598.344	26.51
598.681	26.49
599.017	26.45
599.354	26.46
599.691	26.37
600.027	26.37
600.364	26.33
600.7	26.33
601.037	26.27
601.373	26.22
601.71	26.22
602.046	26.21
602.382	26.2
602.718	26.16
603.054	26.18
603.391	26.18
603.727	26.19
604.063	26.15
604.399	26.17
604.735	26.15
605.071	26.15
605.406	26.15
605.742	26.13
606.078	26.14
606.414	26.13
606.749	26.17
607.085	26.12
607.421	26.1
607.756	26.08
608.092	26.06
608.427	26.03
608.762	25.96
609.098	25.89
609.433	25.84
609.768	25.83
610.104	25.8
610.439	25.78
610.774	25.74
611.109	25.71
611.444	25.69
611.779	25.7
612.114	25.63
612.449	25.6
612.784	25.59
613.118	25.54
613.453	25.47
613.788	25.39
614.123	25.36
614.457	25.32
614.792	25.3
615.126	25.26
615.461	25.23
615.795	25.21
616.13	25.22
616.464	25.21
616.798	25.15
617.132	25.13
617.467	25.13
617.801	25.09
618.135	25.07
618.469	25.01
618.803	24.96
619.137	24.96
619.471	24.96
619.805	24.9
620.139	24.88
620.472	24.86
620.806	24.82
621.14	24.81
621.473	24.77
621.807	24.77
622.141	24.75
622.474	24.72
622.808	24.74
623.141	24.79
623.474	24.81
623.808	24.81
624.141	24.8
624.474	24.77
624.807	24.77
625.141	24.78
625.474	24.8
625.807	24.76
626.14	24.73
626.473	24.73
626.806	24.74
627.138	24.76
627.471	24.78
627.804	24.79
628.137	24.79
628.469	24.8
628.802	24.75
629.135	24.73
629.467	24.72
629.8	24.67
630.132	24.59
630.465	24.57
630.797	24.56
631.129	24.59
631.461	24.57
631.794	24.54
632.126	24.52
632.458	24.51
632.79	24.55
633.122	24.55
633.454	24.54
633.786	24.52
634.118	24.48
634.45	24.46
634.781	24.39
635.113	24.39
635.445	24.38
635.777	24.35
636.108	24.35
636.44	24.34
636.771	24.33
637.103	24.32
637.434	24.23
637.765	24.18
638.097	24.11
638.428	24.03
638.759	24
639.09	23.95
639.422	23.93
639.753	23.91
640.084	23.92
640.415	23.88
640.746	23.86
641.077	23.86
641.407	23.86
641.738	23.89
642.069	23.95
642.4	23.88
642.73	23.9
643.061	23.89
643.392	23.9
643.722	23.95
644.053	23.92
644.383	23.92
644.713	23.98
645.044	23.96
645.374	23.97
645.704	24.03
646.034	24.02
646.365	24.01
646.695	24.02
647.025	23.99
647.355	24.02
647.685	24
648.015	24.02
648.344	24.02
648.674	24.03
649.004	23.91
649.334	23.97
649.663	23.96
649.993	23.97
650.323	23.98
650.652	23.91
650.982	23.93
651.311	23.96
651.64	23.89
651.97	23.91
652.299	23.97
652.628	23.97
652.958	23.99
653.287	24.03
653.616	23.94
653.945	23.93
654.274	23.92
654.603	23.91
654.932	23.86
655.261	23.84
655.589	23.85
655.918	23.97
656.247	23.97
656.576	24.07
656.904	24.13
657.233	24.16
657.561	24.18
657.89	24.24
658.218	24.28
658.547	24.28
658.875	24.31
659.203	24.29
659.532	24.25
659.86	24.25
660.188	24.16
660.516	24.21
660.844	24.2
661.172	24.18
661.5	24.2
661.828	24.21
662.156	24.16
662.484	24.12
662.811	24.07
663.139	24.05
663.467	23.97
663.794	23.87
664.122	23.83
664.45	23.77
664.777	23.7
665.104	23.68
665.432	23.61
665.759	23.55
666.086	23.54
666.414	23.53
666.741	23.54
667.068	23.61
667.395	23.63
667.722	23.65
668.049	23.6
668.376	23.58
668.703	23.59
669.03	23.63
669.357	23.67
669.683	23.64
670.01	23.66
670.337	23.65
670.663	23.7
670.99	23.68
671.317	23.67
671.643	23.73
671.969	23.68
672.296	23.71
672.622	23.7
672.948	23.73
673.275	23.68
673.601	23.69
673.927	23.71
674.253	23.7
674.579	23.73
674.905	23.77
675.231	23.79
675.557	23.81
675.883	23.83
676.209	23.86
676.534	23.92
676.86	23.91
677.186	23.92
677.511	23.88
677.837	23.92
678.162	23.96
678.488	23.89
678.813	23.87
679.139	23.97
679.464	23.97
679.789	23.94
680.114	24.05
680.44	24.07
680.765	24.03
681.09	24
681.415	23.93
681.74	23.93
682.065	23.95
682.39	23.9
682.714	23.88
683.039	23.82
683.364	23.77
683.689	23.72
684.013	23.69
684.338	23.74
684.662	23.73
684.987	23.76
685.311	23.77
685.636	23.8
685.96	23.75
686.284	23.73
686.608	23.71
686.933	23.63
687.257	23.54
687.581	23.53
687.905	23.59
688.229	23.61
688.553	23.61
688.877	23.58
689.201	23.51
689.524	23.46
689.848	23.48
690.172	23.5
690.496	23.57
690.819	23.55
691.143	23.5
691.466	23.49
691.79	23.44
692.113	23.42
692.436	23.39
692.76	23.3
693.083	23.31
693.406	23.25
693.729	23.24
694.053	23.26
694.376	23.2
694.699	23.14
695.022	23.25
695.344	23.36
695.667	23.5
695.99	23.74
696.313	23.88
696.636	23.96
696.958	24
697.281	24.01
697.604	24.05
697.926	24.08
698.249	24.1
698.571	24.1
698.893	24.06
699.216	24.1
699.538	24.16
699.86	24.09
700.182	24.09
700.504	24.04
700.827	24.04
701.149	24.15
701.471	24.18
701.793	24.1
702.114	24.05
702.436	23.91
702.758	23.65
703.08	23.49
703.401	23.32
703.723	23.19
704.045	23.13
704.366	23.05
704.688	22.96
705.009	22.86
705.331	22.9
705.652	22.93
705.973	22.91
706.294	22.9
706.616	23.07
706.937	23.12
707.258	23.17
707.579	23.22
707.9	23.25
708.221	23.32
708.542	23.33
708.863	23.24
709.183	23.33
709.504	23.39
709.825	23.33
710.145	23.42
710.466	23.52
710.787	23.37
711.107	23.36
711.427	23.39
711.748	23.35
712.068	23.34
712.388	23.48
712.709	23.51
713.029	23.54
713.349	23.46
713.669	23.46
713.989	23.59
714.309	23.65
714.629	23.56
714.949	23.5
715.269	23.47
715.589	23.61
715.908	23.51
716.228	23.55
716.548	23.62
716.867	23.61
717.187	23.54
717.506	23.68
717.826	23.71
718.145	23.71
718.465	23.8
718.784	23.79
719.103	23.64
719.422	23.65
719.741	23.59
720.061	23.81
720.38	23.89
720.699	23.88
721.018	23.87
721.336	23.99
721.655	24.11
721.974	24.27
722.293	24.32
722.612	24.5
722.93	24.72
723.249	24.89
723.567	25
723.886	25.06
724.204	25.18
724.523	25.29
724.841	25.36
725.159	25.49
725.477	25.7
725.796	25.9
726.114	26.06
726.432	26.18
726.75	26.22
727.068	26.37
727.386	26.51
727.704	26.65
728.022	26.72
728.339	26.8
728.657	26.9
728.975	26.99
729.292	27.18
729.61	27.18
729.928	27.29
730.245	27.41
730.562	27.62
730.88	27.68
731.197	27.93
731.514	28.15
731.832	28.26
732.149	28.34
732.466	28.48
732.783	28.61
733.1	28.77
733.417	28.78
733.734	28.8
734.051	28.78
734.368	28.84
734.684	29.02
735.001	29.02
735.318	29
735.634	29.09
735.951	29.03
736.268	29.27
736.584	29.31
736.9	29.34
737.217	29.34
737.533	29.51
737.849	29.51
738.166	29.64
738.482	29.7
738.798	29.79
739.114	29.83
739.43	29.81
739.746	29.87
740.062	29.99
740.378	30.31
740.693	30.49
741.009	30.55
741.325	30.63
741.641	30.8
741.956	31
742.272	31.09
742.587	31.35
742.903	31.37
743.218	31.44
743.533	31.52
743.849	31.74
744.164	31.85
744.479	31.94
744.794	31.85
745.109	31.96
745.424	31.99
745.739	32.06
746.054	32.22
746.369	32.38
746.684	32.34
746.999	32.2
747.313	32.34
747.628	32.51
747.943	32.57
748.257	32.6
748.572	32.68
748.886	32.88
749.201	32.91
749.515	32.89
749.829	33.21
750.144	33.5
750.458	33.51
750.772	33.46
751.086	33.51
751.4	33.69
751.714	33.76
752.028	33.87
752.342	33.92
752.656	34
752.97	33.99
753.284	34.26
753.597	34.48
753.911	34.56
754.225	34.73
754.538	34.87
754.852	35.07
755.165	35.18
755.478	35.11
755.792	35.18
756.105	35.44
756.418	35.15
756.731	35.11
757.045	35.26
757.358	35.42
757.671	35.47
757.984	35.41
758.297	35.52
758.609	35.67
758.922	35.84
759.235	35.8
759.548	35.93
759.86	35.73
760.173	35.49
760.486	35.36
760.798	35.14
761.111	35.13
761.423	34.96
761.735	34.83
762.048	34.67
762.36	34.57
762.672	34.49
762.984	34.73
763.296	34.7
763.608	34.71
763.92	34.75
764.232	34.85
764.544	35.05
764.856	35.17
765.168	35.15
765.48	35.14
765.791	35.39
766.103	35.5
766.414	35.64
766.726	35.89
767.037	36.09
767.349	36.28
767.66	36.39
767.972	36.63
768.283	36.98
768.594	37.43
768.905	37.72
769.216	37.96
769.527	37.97
769.838	38.46
770.149	38.63
770.46	38.82
770.771	38.93
771.082	38.91
771.393	38.81
771.703	38.96
772.014	39.27
772.324	39.3
772.635	39.35
772.945	39.72
773.256	40.07
773.566	40.33
773.877	40.64
774.187	40.76
774.497	40.84
774.807	40.73
775.117	40.98
775.427	41.16
775.737	41.12
776.047	41.33
776.357	41
776.667	41.17
776.977	41.19
777.287	41.45
777.596	41.6
777.906	41.84
778.216	42.16
778.525	42.26
778.835	42.36
779.144	42.5
779.453	42.44
779.763	42.2
780.072	42.33
780.381	42.55
780.69	42.83
781	43.04
781.309	43.5
781.618	43.52
781.927	43.68
782.235	43.78
782.544	43.87
782.853	44.07
783.162	44
783.471	44.2
783.779	44.11
784.088	44.14
784.396	44.01
784.705	43.72
785.013	43.54
785.322	43.49
785.63	43.24
785.938	43.08
786.246	43.11
786.554	43
786.863	42.89
787.171	42.88
787.479	42.94
787.787	42.91
788.094	43.01
788.402	42.82
788.71	42.94
789.018	42.73
789.326	42.84
789.633	43.04
789.941	43
790.248	42.96
790.556	43.26
790.863	43.65
791.171	43.81
791.478	44.13
791.785	44.26
792.092	44.77
792.399	45.02
792.707	45.38
793.014	45.46
793.321	45.52
793.628	45.1
793.934	45.08
794.241	44.75
794.548	44.5
794.855	44.48
795.161	44.52
795.468	44.6
795.775	44.65
796.081	44.75
796.388	44.78
796.694	44.92
797	44.88
797.307	44.75
797.613	44.91
797.919	44.77
798.225	44.91
798.531	44.83
798.837	45.02
799.143	44.82
799.449	44.99
799.755	45.19
800.061	45.59
800.367	45.81
800.672	46.1
800.978	46.56
801.284	46.91
801.589	46.99
801.895	47.2
802.2	47.38
802.506	47.28
802.811	47.34
803.116	47.31
803.421	47.51
803.727	47.56
804.032	47.43
804.337	47.56
804.642	47.5
804.947	47.5
805.252	47.29
805.556	47.33
805.861	47.3
806.166	46.94
806.471	47.28
806.775	47.33
807.08	47.64
807.384	47.43
807.689	47.4
807.993	47.48
808.298	47.74
808.602	47.7
808.906	47.64
809.211	47.76
809.515	47.95
809.819	47.7
810.123	48.13
810.427	48.69
810.731	48.84
811.035	48.78
811.338	49.16
811.642	49.85
811.946	50.05
812.25	50.08
812.553	50.38
812.857	49.9
813.16	49.79
813.464	49.74
813.767	49.94
814.07	50.18
814.374	50.42
814.677	50.44
814.98	50.61
815.283	50.88
815.586	51.06
815.889	51.01
816.192	51.04
816.495	50.46
816.798	49.68
817.101	49.25
817.404	49.16
817.706	48.67
818.009	47.78
818.312	47.19
818.614	46.21
818.917	45.09
819.219	43.7
819.521	42.12
819.824	40.56
820.126	39.37
820.428	38.41
820.73	37.7
821.032	37.2
821.334	36.73
821.636	36.37
821.938	36.2
822.24	36.1
822.542	36.03
822.844	35.98
823.145	36
823.447	35.93
823.749	35.78
824.05	35.68
824.352	35.57
824.653	35.54
824.955	35.55
825.256	35.52
825.557	35.65
825.858	35.89
826.16	36.13
826.461	36.48
826.762	36.89
827.063	37.27
827.364	37.76
827.665	38.23
827.965	38.82
828.266	39.24
828.567	39.55
828.868	39.89
829.168	40.1
829.469	40.36
829.769	40.61
830.07	40.81
830.37	41.23
830.67	41.81
830.971	42.16
831.271	42.68
831.571	42.93
831.871	43.06
832.171	43.22
832.471	43.49
832.771	43.48
833.071	43.63
833.371	43.9
833.671	44.03
833.971	44.51
834.27	44.45
834.57	44.27
834.869	44.14
835.169	44.14
835.468	44.16
835.768	44.12
836.067	44.53
836.367	44.94
836.666	45.11
836.965	45.34
837.264	45.74
837.563	46.4
837.862	47.55
838.161	48.49
838.46	48.92
838.759	49.63
839.058	50.52
839.356	51.38
839.655	52.24
839.954	52.88
840.252	53.73
840.551	54.89
840.849	55.21
841.148	56.1
841.446	56.12
841.744	56.54
842.043	57.16
842.341	57.07
842.639	57.56
842.937	57.75
843.235	58.02
843.533	58.86
843.831	58.61
844.129	59.07
844.427	59.94
844.724	61.2
845.022	61.95
845.32	63.41
845.617	63.81
845.915	64.08
846.212	64.68
846.51	64.26
846.807	64.27
847.104	65.21
847.402	65.47
847.699	65.8
847.996	66.57
848.293	66.98
848.59	67.51
848.887	67.24
849.184	67.66
849.481	68.51
849.778	68.79
850.074	69.29
850.371	69.03
850.668	68.51
850.964	68.33
851.261	68.28
851.557	67.55
851.854	67.87
852.15	68.01
852.446	67.71
852.743	67.68
853.039	67.62
853.335	68.39
853.631	68.38
853.927	69.09
854.223	69.94
854.519	69.82
854.815	69.75
855.111	69.98
855.406	69.3
855.702	69.3
855.998	69.24
856.293	70.4
856.589	70.45
856.884	71.13
857.18	71.68
857.475	73.22
857.77	73.63
858.066	73.55
858.361	74.22
858.656	73.66
858.951	73.29
859.246	73.03
859.541	72.04
859.836	72.2
860.131	72.41
860.426	72.22
860.72	72.48
861.015	72.7
861.31	72.94
861.604	73.89
861.899	73.81
862.193	74.09
862.487	73.15
862.782	73.23
863.076	73.11
863.37	73.19
863.664	72.06
863.959	71.33
864.253	71.54
864.547	71.26
864.841	72.01
865.135	72.08
865.428	71.95
865.722	72.82
866.016	73.29
866.31	72.15
866.603	70.55
866.897	69.56
867.19	68.99
867.484	69.9
867.777	70.08
868.07	70.33
868.364	69.72
868.657	70.11
868.95	70.31
869.243	70.41
869.536	70.57
869.829	70.63
870.122	70.97
870.415	70.18
870.708	70.49
871	70.35
871.293	70.9
871.586	70.75
871.878	70.67
872.171	70.39
872.463	70.51
872.756	71.25
873.048	71.14
873.341	71.49
873.633	70.3
873.925	69.57
874.217	69.25
874.509	69.77
874.801	69.48
875.093	69.65
875.385	69.21
875.677	68.35
875.969	68.14
