Data from pcis_p_h3_p6_Reflection_3.txt Node
Date: Wed Jul 12 17:55:36 ART 2017
User: rodoncho
Spectrometer: USB2E3644
Trigger mode: 4
Integration Time (sec): 6.000000E-2
Scans to average: 10
Electric dark correction enabled: true
Nonlinearity correction enabled: false
Boxcar width: 10
XAxis mode: Wavelengths
Number of Pixels in Spectrum: 2048
>>>>>Begin Spectral Data<<<<<
178.315	1941.18
178.696	1714.29
179.076	359.43
179.457	250.68
179.838	132.2
180.218	64.14
180.599	-60
180.979	-135.29
181.36	31.91
181.74	-33.87
182.121	158.82
182.501	88.51
182.881	83.57
183.262	90.45
183.642	99.03
184.022	72.41
184.402	133.7
184.783	143.23
185.163	133.02
185.543	122.93
185.923	113.65
186.303	131.65
186.683	143.61
187.063	124.94
187.443	108.55
187.823	87.83
188.203	81.28
188.583	86.01
188.963	89.47
189.343	93.58
189.723	95.95
190.102	95.36
190.482	93.35
190.862	95.96
191.242	98.07
191.621	98.1
192.001	101.3
192.38	103.59
192.76	108.64
193.14	108.86
193.519	105.94
193.898	103.64
194.278	104.13
194.657	100.97
195.037	100.49
195.416	103.06
195.795	106.55
196.175	109.34
196.554	111.13
196.933	112.43
197.312	110.16
197.692	110.4
198.071	112.39
198.45	112.8
198.829	111.02
199.208	108.44
199.587	107.03
199.966	105.21
200.345	101.97
200.724	99.13
201.103	98.46
201.482	98.94
201.86	100.94
202.239	100.64
202.618	101.64
202.997	102.64
203.375	101.14
203.754	99.54
204.133	98.38
204.511	96.33
204.89	96.13
205.269	97.16
205.647	96.57
206.026	96.33
206.404	96.35
206.782	97.27
207.161	98.6
207.539	100.03
207.918	101
208.296	104.19
208.674	105.84
209.052	104.77
209.431	104.43
209.809	103.77
210.187	103.13
210.565	103.22
210.943	102.89
211.321	103.5
211.699	104.4
212.077	103.96
212.455	104.73
212.833	105.33
213.211	105.17
213.589	104.89
213.967	104.55
214.345	104.92
214.722	104.63
215.1	105.33
215.478	105.84
215.855	105.67
216.233	104.13
216.611	104.12
216.988	105.57
217.366	106.18
217.743	107.91
218.121	107.81
218.498	106.95
218.876	105.19
219.253	105.48
219.631	104.72
220.008	105.26
220.385	104.27
220.762	103.17
221.14	101.51
221.517	101.28
221.894	101.51
222.271	101.66
222.648	103
223.025	103.42
223.402	102.56
223.78	104.04
224.157	105.53
224.533	105.68
224.91	105.16
225.287	104.89
225.664	103.67
226.041	105.05
226.418	106.4
226.795	108.32
227.171	108.82
227.548	109.39
227.925	109.49
228.301	110.95
228.678	111.06
229.055	112.54
229.431	112.91
229.808	113.83
230.184	113.48
230.561	111.84
230.937	110.45
231.313	110.12
231.69	108.81
232.066	108.57
232.442	108.8
232.819	109.67
233.195	110
233.571	109.63
233.947	109.19
234.323	109.69
234.699	110.67
235.075	111.14
235.451	111.87
235.827	113.47
236.203	113.07
236.579	114.23
236.955	115.56
237.331	117.91
237.707	119.88
238.083	123.06
238.459	129.97
238.834	137.57
239.21	143.79
239.586	151.31
239.961	157.54
240.337	159.99
240.713	164.57
241.088	171.07
241.464	176.15
241.839	186.58
242.215	198.22
242.59	216.9
242.965	255.69
243.341	337.37
243.716	490.01
244.091	922.75
244.467	2104.25
244.842	-8045.45
245.217	-1759.2
245.592	-1322.85
245.967	-1121.41
246.343	-1336.86
246.718	-1658.96
247.093	-1656.72
247.468	-1617.15
247.843	-1429.35
248.218	-936.63
248.593	-655.43
248.967	-524.91
249.342	-458.66
249.717	-479.16
250.092	-493.12
250.467	-561.12
250.841	-829.11
251.216	-3253.68
251.591	1777.29
251.965	764.6
252.34	582.11
252.714	489.02
253.089	428.33
253.463	396.95
253.838	404.64
254.212	430.63
254.587	471.38
254.961	535.01
255.335	759.77
255.71	4702.11
256.084	-775.62
256.458	-352.96
256.832	-234.73
257.206	-189.28
257.581	-163.14
257.955	-150.39
258.329	-140.8
258.703	-129.88
259.077	-122.62
259.451	-118.23
259.825	-112.21
260.199	-108.74
260.572	-106.18
260.946	-103.39
261.32	-103.42
261.694	-101.94
262.068	-99.09
262.441	-95.49
262.815	-92.44
263.189	-93
263.562	-99.9
263.936	-115.27
264.309	-137.61
264.683	-163.16
265.056	-177.76
265.43	-187.79
265.803	-183.45
266.176	-176.37
266.55	-173.6
266.923	-168.55
267.296	-156.62
267.67	-147.14
268.043	-133.23
268.416	-122.69
268.789	-108.93
269.162	-94.93
269.535	-88.16
269.908	-84.46
270.281	-82.94
270.654	-82.92
271.027	-84.59
271.4	-85.05
271.773	-85.31
272.146	-84.43
272.519	-79.46
272.891	-76.53
273.264	-76.09
273.637	-75.28
274.01	-74.88
274.382	-74.22
274.755	-73.72
275.127	-73.76
275.5	-74.37
275.872	-74.54
276.245	-74.46
276.617	-76.81
276.99	-81.69
277.362	-84.22
277.734	-84.48
278.107	-82.7
278.479	-78.81
278.851	-74.73
279.223	-72.53
279.596	-71.09
279.968	-70
280.34	-70.87
280.712	-69.8
281.084	-66.02
281.456	-61.19
281.828	-57.17
282.2	-52.77
282.572	-48.15
282.944	-45.48
283.315	-43.85
283.687	-43.48
284.059	-43.21
284.431	-42.86
284.802	-41.24
285.174	-39.43
285.546	-37.95
285.917	-36.84
286.289	-35.87
286.66	-35.31
287.032	-34.63
287.403	-33.73
287.775	-32.94
288.146	-32.13
288.518	-31.77
288.889	-31.07
289.26	-31.75
289.632	-32.28
290.003	-33.11
290.374	-34.79
290.745	-35.29
291.116	-34.77
291.487	-33.6
291.858	-32.72
292.229	-31.82
292.6	-30.76
292.971	-30.21
293.342	-28.63
293.713	-27.57
294.084	-26.96
294.455	-25.95
294.826	-25.55
295.196	-25.69
295.567	-25.89
295.938	-25.89
296.308	-25.91
296.679	-25.34
297.05	-24.71
297.42	-24.19
297.791	-23.59
298.161	-22.53
298.532	-21.95
298.902	-21.56
299.272	-21.4
299.643	-20.73
300.013	-20.37
300.383	-20.03
300.754	-19.56
301.124	-19.79
301.494	-19.62
301.864	-19.35
302.234	-19.25
302.604	-18.86
302.974	-18.16
303.344	-17.91
303.714	-18.1
304.084	-17.01
304.454	-16.88
304.824	-16.19
305.194	-15.44
305.563	-14.8
305.933	-14.02
306.303	-13.01
306.673	-12.33
307.042	-11.55
307.412	-10.57
307.781	-9.37
308.151	-8.6
308.521	-8.1
308.89	-7.78
309.259	-7.46
309.629	-7.02
309.998	-6.85
310.368	-6.67
310.737	-6.46
311.106	-5.86
311.475	-4.81
311.845	-4.85
312.214	-4.58
312.583	-4.4
312.952	-4.29
313.321	-4.02
313.69	-3.92
314.059	-4.17
314.428	-4.28
314.797	-4.34
315.166	-4.86
315.535	-5.4
315.904	-5.54
316.272	-5.74
316.641	-5.87
317.01	-5.98
317.379	-6.21
317.747	-6.13
318.116	-5.87
318.484	-5.79
318.853	-5.43
319.221	-5.63
319.59	-5.15
319.958	-4.84
320.327	-4.6
320.695	-4.28
321.063	-4.22
321.432	-3.89
321.8	-3.29
322.168	-2.54
322.536	-2.2
322.905	-1.5
323.273	-0.85
323.641	-0.52
324.009	-0.29
324.377	0.09
324.745	0.25
325.113	0.67
325.481	1.24
325.849	1.74
326.216	2.38
326.584	2.74
326.952	3.21
327.32	3.57
327.687	3.91
328.055	4.16
328.423	4.39
328.79	4.63
329.158	4.72
329.525	4.99
329.893	5.21
330.26	5.49
330.628	5.46
330.995	5.65
331.362	5.9
331.73	6.43
332.097	6.72
332.464	7.11
332.831	7.29
333.199	7.5
333.566	7.54
333.933	7.48
334.3	7.36
334.667	7.5
335.034	7.55
335.401	7.63
335.768	7.79
336.135	8.07
336.502	8.18
336.868	8.49
337.235	8.52
337.602	8.68
337.969	8.87
338.335	9.12
338.702	9.34
339.069	9.53
339.435	9.65
339.802	9.87
340.168	10.17
340.535	10.35
340.901	10.46
341.267	10.65
341.634	10.95
342	11.25
342.366	11.39
342.733	11.61
343.099	11.81
343.465	12.07
343.831	12.25
344.197	12.51
344.563	12.7
344.929	12.94
345.295	13.16
345.661	13.32
346.027	13.55
346.393	13.67
346.759	13.68
347.125	13.82
347.491	13.91
347.856	13.93
348.222	14.05
348.588	14.24
348.953	14.3
349.319	14.4
349.684	14.53
350.05	14.65
350.415	14.83
350.781	15.03
351.146	15.12
351.512	15.17
351.877	15.3
352.242	15.34
352.608	15.37
352.973	15.35
353.338	15.51
353.703	15.67
354.068	15.81
354.433	16.08
354.798	16.09
355.164	16.19
355.528	16.26
355.893	16.39
356.258	16.44
356.623	16.6
356.988	16.72
357.353	16.87
357.718	16.99
358.082	17.01
358.447	17.03
358.812	17.17
359.176	17.33
359.541	17.39
359.905	17.54
360.27	17.66
360.634	17.86
360.999	17.83
361.363	17.87
361.728	17.97
362.092	17.95
362.456	18.07
362.821	18.16
363.185	18.25
363.549	18.31
363.913	18.43
364.277	18.46
364.641	18.49
365.005	18.58
365.369	18.68
365.733	18.81
366.097	18.97
366.461	18.93
366.825	18.99
367.189	19.14
367.553	19.26
367.916	19.38
368.28	19.45
368.644	19.68
369.007	19.84
369.371	19.85
369.734	19.95
370.098	20.11
370.461	20.17
370.825	20.26
371.188	20.42
371.552	20.56
371.915	20.76
372.278	20.98
372.642	21.08
373.005	21.18
373.368	21.34
373.731	21.38
374.094	21.5
374.457	21.5
374.82	21.56
375.183	21.61
375.546	21.69
375.909	21.78
376.272	21.81
376.635	21.78
376.998	21.89
377.361	21.96
377.723	21.99
378.086	22.11
378.449	22.22
378.811	22.28
379.174	22.34
379.537	22.37
379.899	22.4
380.262	22.44
380.624	22.45
380.987	22.4
381.349	22.42
381.711	22.5
382.074	22.65
382.436	22.74
382.798	22.76
383.16	22.75
383.522	22.77
383.884	22.83
384.247	22.92
384.609	22.97
384.971	23.05
385.333	23.17
385.695	23.19
386.056	23.19
386.418	23.21
386.78	23.22
387.142	23.23
387.504	23.26
387.865	23.32
388.227	23.41
388.589	23.49
388.95	23.55
389.312	23.55
389.673	23.53
390.035	23.48
390.396	23.53
390.758	23.59
391.119	23.64
391.48	23.64
391.842	23.63
392.203	23.63
392.564	23.62
392.925	23.59
393.286	23.61
393.648	23.59
394.009	23.59
394.37	23.55
394.731	23.54
395.092	23.51
395.452	23.45
395.813	23.43
396.174	23.39
396.535	23.35
396.896	23.34
397.257	23.33
397.617	23.35
397.978	23.32
398.338	23.32
398.699	23.3
399.06	23.32
399.42	23.29
399.781	23.26
400.141	23.24
400.501	23.19
400.862	23.16
401.222	23.22
401.582	23.21
401.943	23.21
402.303	23.21
402.663	23.23
403.023	23.28
403.383	23.23
403.743	23.24
404.103	23.3
404.463	23.33
404.823	23.39
405.183	23.39
405.543	23.39
405.903	23.39
406.262	23.39
406.622	23.37
406.982	23.43
407.342	23.48
407.701	23.52
408.061	23.52
408.42	23.49
408.78	23.45
409.139	23.45
409.499	23.44
409.858	23.47
410.217	23.47
410.577	23.46
410.936	23.49
411.295	23.46
411.655	23.4
412.014	23.37
412.373	23.31
412.732	23.29
413.091	23.21
413.45	23.17
413.809	23.1
414.168	23
414.527	22.91
414.886	22.82
415.245	22.7
415.603	22.6
415.962	22.52
416.321	22.44
416.679	22.36
417.038	22.26
417.397	22.14
417.755	22.05
418.114	21.95
418.472	21.87
418.831	21.81
419.189	21.73
419.547	21.66
419.906	21.57
420.264	21.48
420.622	21.43
420.981	21.34
421.339	21.27
421.697	21.2
422.055	21.14
422.413	21.08
422.771	21.06
423.129	21.04
423.487	21.02
423.845	21
424.203	20.96
424.56	20.95
424.918	20.95
425.276	20.94
425.634	20.96
425.991	20.96
426.349	20.94
426.707	20.97
427.064	20.98
427.422	21.02
427.779	21.06
428.137	21.08
428.494	21.13
428.851	21.19
429.209	21.27
429.566	21.32
429.923	21.35
430.28	21.35
430.637	21.38
430.995	21.41
431.352	21.43
431.709	21.5
432.066	21.56
432.423	21.58
432.78	21.63
433.137	21.68
433.493	21.71
433.85	21.78
434.207	21.79
434.564	21.81
434.92	21.83
435.277	21.84
435.634	21.88
435.99	21.89
436.347	21.92
436.703	21.96
437.06	21.98
437.416	22.02
437.773	22.05
438.129	22.08
438.485	22.06
438.841	22.07
439.198	22.05
439.554	22.03
439.91	22.03
440.266	22.01
440.622	21.97
440.978	21.94
441.334	21.89
441.69	21.83
442.046	21.77
442.402	21.69
442.758	21.6
443.113	21.51
443.469	21.44
443.825	21.36
444.181	21.3
444.536	21.26
444.892	21.19
445.247	21.14
445.603	21.08
445.958	21.02
446.314	20.96
446.669	20.88
447.025	20.81
447.38	20.76
447.735	20.71
448.09	20.66
448.446	20.6
448.801	20.54
449.156	20.49
449.511	20.47
449.866	20.42
450.221	20.42
450.576	20.41
450.931	20.39
451.286	20.36
451.641	20.33
451.995	20.3
452.35	20.29
452.705	20.26
453.06	20.25
453.414	20.3
453.769	20.32
454.123	20.37
454.478	20.41
454.832	20.43
455.187	20.45
455.541	20.42
455.896	20.43
456.25	20.48
456.604	20.53
456.958	20.55
457.313	20.63
457.667	20.67
458.021	20.74
458.375	20.8
458.729	20.88
459.083	20.95
459.437	21.02
459.791	21.1
460.145	21.21
460.499	21.3
460.852	21.37
461.206	21.47
461.56	21.57
461.914	21.66
462.267	21.76
462.621	21.89
462.974	22.11
463.328	22.33
463.681	22.54
464.035	22.76
464.388	23.01
464.742	23.17
465.095	23.36
465.448	23.54
465.801	23.7
466.155	23.84
466.508	23.98
466.861	24.1
467.214	24.25
467.567	24.34
467.92	24.45
468.273	24.58
468.626	24.7
468.979	24.8
469.332	24.9
469.684	24.99
470.037	25.09
470.39	25.14
470.743	25.2
471.095	25.27
471.448	25.32
471.8	25.35
472.153	25.39
472.505	25.42
472.858	25.39
473.21	25.39
473.562	25.37
473.915	25.35
474.267	25.28
474.619	25.18
474.971	25.08
475.324	24.99
475.676	24.89
476.028	24.77
476.38	24.66
476.732	24.54
477.084	24.42
477.436	24.27
477.787	24.12
478.139	23.98
478.491	23.81
478.843	23.6
479.195	23.4
479.546	23.16
479.898	22.88
480.249	22.65
480.601	22.44
480.952	22.28
481.304	22.15
481.655	22.06
482.007	21.96
482.358	21.9
482.709	21.83
483.061	21.77
483.412	21.74
483.763	21.71
484.114	21.69
484.465	21.68
484.816	21.67
485.167	21.67
485.518	21.67
485.869	21.69
486.22	21.72
486.571	21.75
486.922	21.8
487.272	21.89
487.623	22
487.974	22.15
488.324	22.32
488.675	22.48
489.025	22.64
489.376	22.82
489.726	22.98
490.077	23.14
490.427	23.32
490.778	23.48
491.128	23.69
491.478	23.92
491.828	24.19
492.179	24.48
492.529	24.78
492.879	25.07
493.229	25.36
493.579	25.65
493.929	25.95
494.279	26.24
494.629	26.53
494.979	26.89
495.328	27.29
495.678	27.74
496.028	28.21
496.378	28.65
496.727	29.06
497.077	29.44
497.426	29.81
497.776	30.17
498.125	30.54
498.475	30.89
498.824	31.19
499.174	31.51
499.523	31.81
499.872	32.13
500.221	32.49
500.571	32.84
500.92	33.2
501.269	33.54
501.618	33.89
501.967	34.23
502.316	34.57
502.665	34.92
503.014	35.22
503.363	35.53
503.711	35.85
504.06	36.11
504.409	36.4
504.758	36.68
505.106	36.91
505.455	37.12
505.803	37.32
506.152	37.52
506.5	37.7
506.849	37.88
507.197	38.09
507.546	38.27
507.894	38.43
508.242	38.61
508.59	38.77
508.939	38.93
509.287	39.06
509.635	39.21
509.983	39.32
510.331	39.45
510.679	39.58
511.027	39.69
511.375	39.82
511.723	39.97
512.07	40.1
512.418	40.26
512.766	40.43
513.114	40.56
513.461	40.71
513.809	40.86
514.156	40.98
514.504	41.07
514.851	41.16
515.199	41.27
515.546	41.34
515.893	41.46
516.241	41.54
516.588	41.67
516.935	41.73
517.282	41.81
517.63	41.9
517.977	41.96
518.324	42.06
518.671	42.15
519.018	42.2
519.365	42.27
519.711	42.33
520.058	42.35
520.405	42.44
520.752	42.5
521.099	42.54
521.445	42.65
521.792	42.72
522.138	42.77
522.485	42.85
522.832	42.95
523.178	43.02
523.524	43.1
523.871	43.15
524.217	43.2
524.563	43.25
524.91	43.35
525.256	43.48
525.602	43.5
525.948	43.53
526.294	43.55
526.64	43.54
526.986	43.55
527.332	43.56
527.678	43.6
528.024	43.64
528.37	43.69
528.716	43.69
529.061	43.72
529.407	43.77
529.753	43.84
530.098	43.87
530.444	43.89
530.789	43.91
531.135	43.95
531.48	44.01
531.826	44.08
532.171	44.1
532.516	44.13
532.862	44.18
533.207	44.26
533.552	44.31
533.897	44.39
534.242	44.47
534.587	44.53
534.932	44.57
535.277	44.6
535.622	44.64
535.967	44.71
536.312	44.76
536.657	44.8
537.001	44.86
537.346	44.95
537.691	45.07
538.035	45.15
538.38	45.18
538.724	45.19
539.069	45.2
539.413	45.23
539.758	45.24
540.102	45.28
540.446	45.28
540.791	45.33
541.135	45.36
541.479	45.38
541.823	45.41
542.167	45.42
542.512	45.44
542.856	45.43
543.2	45.45
543.543	45.48
543.887	45.54
544.231	45.56
544.575	45.59
544.919	45.63
545.262	45.68
545.606	45.73
545.95	45.79
546.293	45.86
546.637	45.93
546.98	46
547.324	46.07
547.667	46.16
548.011	46.22
548.354	46.29
548.697	46.32
549.04	46.37
549.384	46.4
549.727	46.44
550.07	46.49
550.413	46.56
550.756	46.61
551.099	46.66
551.442	46.71
551.785	46.74
552.128	46.77
552.47	46.81
552.813	46.82
553.156	46.88
553.499	46.9
553.841	46.93
554.184	46.92
554.526	46.94
554.869	46.94
555.211	46.94
555.554	46.96
555.896	47.02
556.238	47.04
556.581	47.12
556.923	47.14
557.265	47.18
557.607	47.23
557.949	47.24
558.291	47.23
558.633	47.27
558.975	47.34
559.317	47.34
559.659	47.35
560.001	47.36
560.343	47.37
560.685	47.39
561.026	47.4
561.368	47.41
561.71	47.39
562.051	47.4
562.393	47.39
562.734	47.37
563.076	47.37
563.417	47.36
563.759	47.36
564.1	47.39
564.441	47.41
564.782	47.39
565.124	47.38
565.465	47.39
565.806	47.41
566.147	47.37
566.488	47.35
566.829	47.35
567.17	47.36
567.511	47.34
567.851	47.35
568.192	47.35
568.533	47.37
568.874	47.44
569.214	47.46
569.555	47.46
569.895	47.46
570.236	47.48
570.576	47.5
570.917	47.48
571.257	47.54
571.598	47.53
571.938	47.53
572.278	47.6
572.618	47.64
572.959	47.58
573.299	47.61
573.639	47.64
573.979	47.66
574.319	47.67
574.659	47.69
574.999	47.68
575.339	47.67
575.678	47.69
576.018	47.64
576.358	47.59
576.698	47.61
577.037	47.65
577.377	47.63
577.716	47.63
578.056	47.63
578.395	47.56
578.735	47.57
579.074	47.58
579.413	47.52
579.753	47.49
580.092	47.55
580.431	47.58
580.77	47.57
581.109	47.56
581.448	47.56
581.787	47.53
582.126	47.52
582.465	47.53
582.804	47.52
583.143	47.48
583.482	47.54
583.82	47.53
584.159	47.53
584.498	47.51
584.836	47.56
585.175	47.58
585.514	47.58
585.852	47.6
586.19	47.57
586.529	47.58
586.867	47.59
587.205	47.61
587.544	47.61
587.882	47.57
588.22	47.57
588.558	47.55
588.896	47.57
589.234	47.57
589.572	47.58
589.91	47.61
590.248	47.66
590.586	47.63
590.924	47.68
591.262	47.68
591.599	47.73
591.937	47.71
592.275	47.73
592.612	47.75
592.95	47.76
593.287	47.78
593.625	47.78
593.962	47.82
594.299	47.81
594.637	47.83
594.974	47.88
595.311	47.87
595.648	47.9
595.985	47.92
596.322	47.92
596.659	47.9
596.996	47.88
597.333	47.91
597.67	47.9
598.007	47.87
598.344	47.88
598.681	47.86
599.017	47.83
599.354	47.83
599.691	47.82
600.027	47.85
600.364	47.86
600.7	47.87
601.037	47.84
601.373	47.81
601.71	47.8
602.046	47.78
602.382	47.78
602.718	47.75
603.054	47.74
603.391	47.75
603.727	47.74
604.063	47.73
604.399	47.71
604.735	47.74
605.071	47.75
605.406	47.74
605.742	47.76
606.078	47.75
606.414	47.73
606.749	47.75
607.085	47.67
607.421	47.66
607.756	47.66
608.092	47.66
608.427	47.66
608.762	47.6
609.098	47.61
609.433	47.62
609.768	47.6
610.104	47.57
610.439	47.56
610.774	47.59
611.109	47.6
611.444	47.57
611.779	47.56
612.114	47.53
612.449	47.5
612.784	47.46
613.118	47.45
613.453	47.42
613.788	47.4
614.123	47.41
614.457	47.38
614.792	47.37
615.126	47.31
615.461	47.29
615.795	47.29
616.13	47.25
616.464	47.25
616.798	47.27
617.132	47.36
617.467	47.38
617.801	47.35
618.135	47.31
618.469	47.34
618.803	47.28
619.137	47.28
619.471	47.32
619.805	47.33
620.139	47.33
620.472	47.4
620.806	47.38
621.14	47.43
621.473	47.46
621.807	47.4
622.141	47.4
622.474	47.47
622.808	47.53
623.141	47.55
623.474	47.59
623.808	47.64
624.141	47.63
624.474	47.66
624.807	47.75
625.141	47.8
625.474	47.77
625.807	47.77
626.14	47.86
626.473	47.83
626.806	47.83
627.138	47.87
627.471	47.85
627.804	47.88
628.137	47.89
628.469	47.88
628.802	47.93
629.135	47.94
629.467	47.89
629.8	47.91
630.132	47.94
630.465	47.92
630.797	47.94
631.129	47.87
631.461	47.82
631.794	47.74
632.126	47.75
632.458	47.8
632.79	47.86
633.122	47.84
633.454	47.84
633.786	47.87
634.118	47.88
634.45	47.87
634.781	47.85
635.113	47.81
635.445	47.81
635.777	47.81
636.108	47.85
636.44	47.88
636.771	47.86
637.103	47.8
637.434	47.82
637.765	47.73
638.097	47.78
638.428	47.81
638.759	47.82
639.09	47.76
639.422	47.71
639.753	47.71
640.084	47.72
640.415	47.66
640.746	47.67
641.077	47.65
641.407	47.63
641.738	47.6
642.069	47.64
642.4	47.61
642.73	47.59
643.061	47.56
643.392	47.54
643.722	47.54
644.053	47.57
644.383	47.54
644.713	47.56
645.044	47.55
645.374	47.5
645.704	47.51
646.034	47.56
646.365	47.58
646.695	47.63
647.025	47.59
647.355	47.65
647.685	47.64
648.015	47.67
648.344	47.71
648.674	47.7
649.004	47.66
649.334	47.69
649.663	47.69
649.993	47.69
650.323	47.73
650.652	47.7
650.982	47.69
651.311	47.71
651.64	47.73
651.97	47.76
652.299	47.83
652.628	47.81
652.958	47.84
653.287	47.93
653.616	47.9
653.945	47.92
654.274	47.9
654.603	47.9
654.932	47.85
655.261	47.85
655.589	47.96
655.918	48.01
656.247	48.04
656.576	48.15
656.904	48.21
657.233	48.21
657.561	48.28
657.89	48.33
658.218	48.28
658.547	48.34
658.875	48.28
659.203	48.31
659.532	48.34
659.86	48.35
660.188	48.33
660.516	48.33
660.844	48.3
661.172	48.34
661.5	48.35
661.828	48.34
662.156	48.33
662.484	48.28
662.811	48.22
663.139	48.18
663.467	48.11
663.794	48.11
664.122	48.04
664.45	47.98
664.777	47.86
665.104	47.91
665.432	47.81
665.759	47.8
666.086	47.76
666.414	47.8
666.741	47.69
667.068	47.65
667.395	47.66
667.722	47.69
668.049	47.69
668.376	47.67
668.703	47.74
669.03	47.78
669.357	47.76
669.683	47.84
670.01	47.88
670.337	47.89
670.663	47.88
670.99	47.89
671.317	47.88
671.643	47.98
671.969	48.04
672.296	48.1
672.622	48.17
672.948	48.13
673.275	48.06
673.601	48.23
673.927	48.29
674.253	48.32
674.579	48.32
674.905	48.32
675.231	48.34
675.557	48.27
675.883	48.28
676.209	48.36
676.534	48.41
676.86	48.4
677.186	48.43
677.511	48.45
677.837	48.47
678.162	48.54
678.488	48.57
678.813	48.56
679.139	48.56
679.464	48.57
679.789	48.62
680.114	48.61
680.44	48.55
680.765	48.53
681.09	48.47
681.415	48.5
681.74	48.51
682.065	48.49
682.39	48.6
682.714	48.58
683.039	48.55
683.364	48.53
683.689	48.49
684.013	48.49
684.338	48.41
684.662	48.46
684.987	48.44
685.311	48.4
685.636	48.36
685.96	48.34
686.284	48.41
686.608	48.42
686.933	48.48
687.257	48.49
687.581	48.56
687.905	48.65
688.229	48.61
688.553	48.69
688.877	48.76
689.201	48.72
689.524	48.74
689.848	48.77
690.172	48.8
690.496	48.89
690.819	48.88
691.143	48.93
691.466	48.85
691.79	48.82
692.113	48.8
692.436	48.79
692.76	48.78
693.083	48.65
693.406	48.64
693.729	48.6
694.053	48.57
694.376	48.49
694.699	48.5
695.022	48.69
695.344	48.73
695.667	48.79
695.99	48.82
696.313	48.86
696.636	48.92
696.958	48.87
697.281	48.85
697.604	48.87
697.926	48.86
698.249	48.91
698.571	48.95
698.893	49
699.216	49
699.538	49.07
699.86	49.14
700.182	49.07
700.504	49.04
700.827	49.13
701.149	49.11
701.471	49.03
701.793	48.94
702.114	48.78
702.436	48.73
702.758	48.64
703.08	48.64
703.401	48.44
703.723	48.43
704.045	48.39
704.366	48.43
704.688	48.52
705.009	48.56
705.331	48.51
705.652	48.5
705.973	48.63
706.294	48.59
706.616	48.63
706.937	48.7
707.258	48.85
707.579	48.76
707.9	48.87
708.221	48.97
708.542	48.93
708.863	49.04
709.183	49.08
709.504	49.21
709.825	49.2
710.145	49.28
710.466	49.4
710.787	49.48
711.107	49.41
711.427	49.39
711.748	49.35
712.068	49.4
712.388	49.51
712.709	49.56
713.029	49.62
713.349	49.58
713.669	49.64
713.989	49.69
714.309	49.85
714.629	49.83
714.949	49.79
715.269	49.82
715.589	49.86
715.908	49.9
716.228	49.94
716.548	49.98
716.867	50
717.187	49.99
717.506	49.93
717.826	49.97
718.145	50.04
718.465	50.21
718.784	50.31
719.103	50.3
719.422	50.28
719.741	50.23
720.061	50.35
720.38	50.44
720.699	50.3
721.018	50.31
721.336	50.3
721.655	50.42
721.974	50.49
722.293	50.6
722.612	50.7
722.93	50.68
723.249	50.68
723.567	50.94
723.886	51.01
724.204	51.08
724.523	51.19
724.841	51.32
725.159	51.34
725.477	51.29
725.796	51.29
726.114	51.45
726.432	51.56
726.75	51.66
727.068	51.71
727.386	52.01
727.704	52.01
728.022	52.1
728.339	52.14
728.657	52.2
728.975	52.25
729.292	52.22
729.61	52.27
729.928	52.42
730.245	52.33
730.562	52.37
730.88	52.54
731.197	52.54
731.514	52.5
731.832	52.65
732.149	52.72
732.466	52.81
732.783	52.84
733.1	52.99
733.417	53
733.734	53.25
734.051	53.37
734.368	53.36
734.684	53.55
735.001	53.53
735.318	53.58
735.634	53.53
735.951	53.63
736.268	53.75
736.584	53.93
736.9	54.21
737.217	54.37
737.533	54.51
737.849	54.59
738.166	54.7
738.482	54.65
738.798	54.81
739.114	54.95
739.43	55.01
739.746	54.89
740.062	55.01
740.378	54.79
740.693	54.73
741.009	54.93
741.325	54.92
741.641	55.21
741.956	55.35
742.272	55.63
742.587	55.74
742.903	55.92
743.218	55.83
743.533	55.74
743.849	55.77
744.164	55.82
744.479	55.93
744.794	56.02
745.109	56.01
745.424	56
745.739	55.95
746.054	56.02
746.369	56.12
746.684	56.18
746.999	56.34
747.313	56.34
747.628	56.29
747.943	56.38
748.257	56.41
748.572	56.4
748.886	56.19
749.201	56.41
749.515	56.31
749.829	56.42
750.144	56.43
750.458	56.24
750.772	56.19
751.086	56.38
751.4	56.5
751.714	56.68
752.028	56.83
752.342	57.01
752.656	57.04
752.97	57.21
753.284	57.2
753.597	57.24
753.911	57.38
754.225	57.58
754.538	57.56
754.852	57.59
755.165	57.87
755.478	58.09
755.792	57.95
756.105	57.86
756.418	57.78
756.731	58.06
757.045	58.32
757.358	58.47
757.671	58.37
757.984	58.34
758.297	58.35
758.609	58.25
758.922	58.24
759.235	58.27
759.548	58.24
759.86	58.2
760.173	58.21
760.486	58.04
760.798	57.98
761.111	58.13
761.423	58.11
761.735	57.91
762.048	57.85
762.36	57.79
762.672	57.92
762.984	57.98
763.296	58
763.608	57.95
763.92	57.81
764.232	57.91
764.544	58.07
764.856	58.14
765.168	58.24
765.48	58.36
765.791	58.45
766.103	58.52
766.414	58.53
766.726	58.56
767.037	58.82
767.349	58.84
767.66	58.82
767.972	59.09
768.283	59.4
768.594	59.63
768.905	59.88
769.216	60.09
769.527	60.4
769.838	60.41
770.149	60.94
770.46	61.24
770.771	61.5
771.082	61.64
771.393	61.83
771.703	61.8
772.014	61.81
772.324	61.84
772.635	61.88
772.945	62.25
773.256	62.67
773.566	62.65
773.877	62.74
774.187	62.88
774.497	62.51
774.807	62.3
775.117	62.61
775.427	62.64
775.737	62.69
776.047	62.56
776.357	62.59
776.667	62.21
776.977	62.34
777.287	62.17
777.596	62.07
777.906	61.94
778.216	62.11
778.525	62.33
778.835	62.57
779.144	63.02
779.453	63.3
779.763	63.04
780.072	63.13
780.381	63.6
780.69	63.67
781	63.9
781.309	64.12
781.618	63.97
781.927	64.45
782.235	64.68
782.544	64.88
782.853	64.85
783.162	64.95
783.471	64.85
783.779	65.23
784.088	65.24
784.396	65.17
784.705	65.3
785.013	65.01
785.322	64.91
785.63	64.51
785.938	64.12
786.246	64.14
786.554	63.77
786.863	63.69
787.171	63.66
787.479	63.69
787.787	63.48
788.094	63.4
788.402	63.03
788.71	62.62
789.018	62.68
789.326	62.57
789.633	62.81
789.941	62.93
790.248	62.71
790.556	62.93
790.863	62.87
791.171	62.78
791.478	63.23
791.785	63.25
792.092	63.34
792.399	63.55
792.707	63.82
793.014	64.14
793.321	64.28
793.628	64.22
793.934	64.32
794.241	64.39
794.548	64.14
794.855	64.16
795.161	64.51
795.468	64.22
795.775	64.57
796.081	64.49
796.388	64.44
796.694	64.5
797	64.23
797.307	64.5
797.613	64.39
797.919	64.28
798.225	64.26
798.531	64.24
798.837	64.49
799.143	64.29
799.449	64.57
799.755	64.3
800.061	64.45
800.367	64.84
800.672	65.28
800.978	65.91
801.284	66.26
801.589	66.23
801.895	66.41
802.2	66.33
802.506	66.35
802.811	66.19
803.116	66.28
803.421	66.28
803.727	66.69
804.032	66.87
804.337	66.42
804.642	66.55
804.947	66.73
805.252	66.6
805.556	66.98
805.861	67
806.166	67.11
806.471	67.05
806.775	66.73
807.08	66.85
807.384	67.02
807.689	66.88
807.993	67.01
808.298	67.2
808.602	67.2
808.906	67.53
809.211	67.89
809.515	68.06
809.819	68.24
810.123	67.98
810.427	68.19
810.731	68.63
811.035	68.33
811.338	68.42
811.642	68.51
811.946	68.51
812.25	68.44
812.553	68.38
812.857	68.97
813.16	69.1
813.464	68.79
813.767	68.35
814.07	68.16
814.374	67.83
814.677	67.53
814.98	67.59
815.283	67.31
815.586	67.35
815.889	67.41
816.192	67.41
816.495	67.62
816.798	67.43
817.101	67.23
817.404	67.27
817.706	67.08
818.009	66.73
818.312	66.08
818.614	65.61
818.917	65.09
819.219	63.73
819.521	63.08
819.824	62.09
820.126	61.26
820.428	60.75
820.73	60.41
821.032	60.03
821.334	59.68
821.636	59.48
821.938	59.36
822.24	59.11
822.542	59.13
822.844	58.96
823.145	58.98
823.447	58.87
823.749	58.78
824.05	58.69
824.352	58.65
824.653	58.63
824.955	58.53
825.256	58.47
825.557	58.48
825.858	58.41
826.16	58.52
826.461	58.73
826.762	58.87
827.063	59.13
827.364	59.46
827.665	59.81
827.965	60.05
828.266	60.09
828.567	60.36
828.868	60.39
829.168	60.78
829.469	60.85
829.769	61.03
830.07	61.48
830.37	61.85
830.67	62.03
830.971	62.33
831.271	62.71
831.571	62.7
831.871	62.93
832.171	62.88
832.471	63.09
832.771	63.1
833.071	63.14
833.371	63.04
833.671	63.1
833.971	63.39
834.27	63.41
834.57	63.62
834.869	63.55
835.169	63.59
835.468	63.51
835.768	63.44
836.067	63.72
836.367	63.4
836.666	63.42
836.965	63.6
837.264	63.64
837.563	63.87
837.862	64.46
838.161	64.94
838.46	65.78
838.759	66.08
839.058	66.51
839.356	67.38
839.655	67.92
839.954	68.35
840.252	68.52
840.551	68.6
840.849	69.11
841.148	69.79
841.446	70.28
841.744	70.53
842.043	70.91
842.341	70.62
842.639	71.06
842.937	71.04
843.235	71.13
843.533	71.5
843.831	72.22
844.129	72.7
844.427	73.53
844.724	73.81
845.022	74.41
845.32	74.89
845.617	75.46
845.915	75.77
846.212	75.77
846.51	75.74
846.807	76.59
847.104	76.82
847.402	77.2
847.699	76.82
847.996	76.16
848.293	76.52
848.59	77.19
848.887	77.95
849.184	78.42
849.481	77.98
849.778	78.58
850.074	78.48
850.371	78.76
850.668	79.45
850.964	79.15
851.261	79.21
851.557	79.51
851.854	79.33
852.15	79.85
852.446	80.44
852.743	80.67
853.039	81.4
853.335	81.97
853.631	81.71
853.927	81.24
854.223	81.94
854.519	82.16
854.815	82.22
855.111	81.34
855.406	81.85
855.702	82.72
855.998	82.85
856.293	82.65
856.589	82.62
856.884	81.72
857.18	81.81
857.475	82.31
857.77	82.46
858.066	82.1
858.361	82.05
858.656	81.61
858.951	81.46
859.246	80.95
859.541	80.23
859.836	80.33
860.131	81.63
860.426	81.42
860.72	80.93
861.015	80.22
861.31	81.24
861.604	81.34
861.899	81.87
862.193	80.87
862.487	81.65
862.782	82.23
863.076	82.79
863.37	83.57
863.664	83.5
863.959	83.61
864.253	83.49
864.547	83.18
864.841	83.24
865.135	83.63
865.428	82.82
865.722	82.3
866.016	81.84
866.31	80.35
866.603	79.69
866.897	79.85
867.19	80.6
867.484	80.04
867.777	78.93
868.07	79.34
868.364	80.77
868.657	80.31
868.95	79.26
869.243	79.28
869.536	78.84
869.829	79.62
870.122	79.55
870.415	79.72
870.708	80.36
871	79.94
871.293	79.31
871.586	80.39
871.878	81.18
872.171	80.91
872.463	82.69
872.756	83.72
873.048	82.91
873.341	82.9
873.633	82.99
873.925	83.7
874.217	82.96
874.509	82.27
874.801	82.34
875.093	82.9
875.385	81.99
875.677	81.55
875.969	79.67
