Data from pcis_p_m4_p1_Reflection_2.txt Node
Date: Wed Jul 12 17:56:42 ART 2017
User: rodoncho
Spectrometer: USB2E3644
Trigger mode: 4
Integration Time (sec): 6.000000E-2
Scans to average: 10
Electric dark correction enabled: true
Nonlinearity correction enabled: false
Boxcar width: 10
XAxis mode: Wavelengths
Number of Pixels in Spectrum: 2048
>>>>>Begin Spectral Data<<<<<
178.315	121.73
178.696	145.35
179.076	104.76
179.457	95.89
179.838	96.25
180.218	-11.63
180.599	97.17
180.979	66.67
181.36	-93.12
181.74	-135.05
182.121	-387.5
182.501	76.53
182.881	69.15
183.262	6.54
183.642	-152.72
184.022	-3518.75
184.402	418.75
184.783	200.21
185.163	185.07
185.543	165.1
185.923	161.16
186.303	159.67
186.683	160.29
187.063	151.38
187.443	149.47
187.823	152.59
188.203	164.16
188.583	159.71
188.963	151.74
189.343	140.62
189.723	139.81
190.102	138.65
190.482	140.04
190.862	141.97
191.242	135.58
191.621	129.02
192.001	120.94
192.38	118.97
192.76	120.52
193.14	118.36
193.519	118.43
193.898	118.85
194.278	117.9
194.657	118.76
195.037	113.96
195.416	111.18
195.795	109.47
196.175	105.71
196.554	105.24
196.933	107.79
197.312	109
197.692	108.92
198.071	107.44
198.45	106.64
198.829	107.89
199.208	110.2
199.587	112.15
199.966	113.61
200.345	113.39
200.724	112.76
201.103	115.82
201.482	117.22
201.86	115.99
202.239	114.68
202.618	113.26
202.997	116.15
203.375	119.04
203.754	120
204.133	121.9
204.511	124.05
204.89	123.56
205.269	123.56
205.647	122.33
206.026	123.54
206.404	123.56
206.782	123.38
207.161	124.47
207.539	124.54
207.918	123.7
208.296	123.22
208.674	124.99
209.052	122.28
209.431	121.07
209.809	121.37
210.187	122.48
210.565	123.53
210.943	123.06
211.321	123.27
211.699	123.09
212.077	122.62
212.455	122.48
212.833	121.03
213.211	119.97
213.589	121.18
213.967	120.38
214.345	120.39
214.722	118.36
215.1	115.33
215.478	114.16
215.855	115.24
216.233	116.45
216.611	117.78
216.988	120.17
217.366	122.27
217.743	122.21
218.121	122.73
218.498	122.26
218.876	122.57
219.253	122.8
219.631	123.6
220.008	122.79
220.385	122.64
220.762	124.16
221.14	124.65
221.517	123.37
221.894	123.32
222.271	124.35
222.648	127.07
223.025	128.51
223.402	128.93
223.78	128.44
224.157	127.87
224.533	126.82
224.91	125.75
225.287	125.03
225.664	126.23
226.041	124.95
226.418	124.73
226.795	123.88
227.171	121.29
227.548	119.37
227.925	119.88
228.301	119.2
228.678	119.27
229.055	119.06
229.431	119.51
229.808	119.72
230.184	118.5
230.561	117.43
230.937	117.24
231.313	117.31
231.69	117.65
232.066	118.94
232.442	118.37
232.819	118.06
233.195	117.65
233.571	117.47
233.947	117.75
234.323	118.87
234.699	120.75
235.075	122.29
235.451	125.49
235.827	126.99
236.203	128.75
236.579	129.52
236.955	130.86
237.331	131.81
237.707	136.23
238.083	141.48
238.459	147.17
238.834	156.63
239.21	163.17
239.586	170.22
239.961	176.44
240.337	180.91
240.713	186.75
241.088	193.34
241.464	195.29
241.839	205.77
242.215	221.07
242.59	239.3
242.965	283.74
243.341	384.62
243.716	628.91
244.091	1351.54
244.467	12013.75
244.842	-1934.49
245.217	-908.59
245.592	-778.04
245.967	-685.33
246.343	-728.56
246.718	-833.66
247.093	-765.71
247.468	-707.89
247.843	-671.77
248.218	-533.89
248.593	-436.42
248.967	-357.38
249.342	-320.44
249.717	-317.65
250.092	-322.91
250.467	-338.88
250.841	-414.92
251.216	-673.4
251.591	-1594.95
251.965	7236.72
252.34	1503.75
252.714	995.79
253.089	702.03
253.463	661.21
253.838	618.05
254.212	678.23
254.587	886.71
254.961	1356.41
255.335	15056.45
255.71	-1024
256.084	-405.66
256.458	-245.59
256.832	-183.62
257.206	-154.16
257.581	-140.46
257.955	-133.45
258.329	-126.55
258.703	-118.26
259.077	-110.04
259.451	-106.56
259.825	-100.66
260.199	-97.72
260.572	-95.89
260.946	-91.85
261.32	-90.22
261.694	-87.67
262.068	-85.78
262.441	-84.97
262.815	-84.96
263.189	-84.88
263.562	-88.07
263.936	-99.1
264.309	-115.19
264.683	-134.4
265.056	-147.04
265.43	-149.43
265.803	-146.61
266.176	-142.58
266.55	-142.24
266.923	-140.74
267.296	-135.14
267.67	-128.07
268.043	-118.19
268.416	-110.01
268.789	-100.22
269.162	-89.47
269.535	-82.62
269.908	-78.29
270.281	-75.29
270.654	-74.53
271.027	-76.56
271.4	-77.9
271.773	-79.18
272.146	-78.88
272.519	-75.7
272.891	-73.6
273.264	-73.64
273.637	-73.44
274.01	-74.73
274.382	-74.09
274.755	-73.13
275.127	-73.63
275.5	-74.98
275.872	-75.12
276.245	-73.98
276.617	-75.07
276.99	-79.17
277.362	-82.08
277.734	-83.72
278.107	-83.33
278.479	-80.2
278.851	-76.48
279.223	-72.98
279.596	-70.69
279.968	-68.98
280.34	-69.12
280.712	-67.01
281.084	-63.05
281.456	-58
281.828	-52.97
282.2	-48.67
282.572	-45.15
282.944	-41.9
283.315	-40.35
283.687	-39.49
284.059	-39.22
284.431	-38.28
284.802	-36.88
285.174	-35.3
285.546	-33.77
285.917	-33.17
286.289	-32.12
286.66	-30.98
287.032	-31.11
287.403	-30.25
287.775	-29.66
288.146	-29.2
288.518	-28.9
288.889	-29.13
289.26	-30.01
289.632	-30.73
290.003	-31.37
290.374	-32.29
290.745	-33.07
291.116	-32.94
291.487	-31.77
291.858	-30.55
292.229	-29.94
292.6	-29.25
292.971	-28.19
293.342	-26.75
293.713	-24.6
294.084	-23.19
294.455	-22.64
294.826	-21.05
295.196	-20.32
295.567	-19.93
295.938	-19.49
296.308	-19.61
296.679	-18.46
297.05	-17.43
297.42	-16.28
297.791	-15.55
298.161	-14.81
298.532	-14.23
298.902	-13.53
299.272	-13.09
299.643	-12.81
300.013	-12.54
300.383	-11.86
300.754	-11.05
301.124	-10.69
301.494	-10.55
301.864	-10.69
302.234	-10.36
302.604	-10.79
302.974	-10.67
303.344	-10.44
303.714	-9.89
304.084	-8.96
304.454	-8.78
304.824	-8.25
305.194	-7.83
305.563	-7.19
305.933	-6.34
306.303	-5.3
306.673	-4.61
307.042	-3.93
307.412	-2.85
307.781	-1.72
308.151	-0.8
308.521	-0.46
308.89	-0.42
309.259	-0.21
309.629	0.04
309.998	0.2
310.368	0.48
310.737	0.88
311.106	1.24
311.475	2.03
311.845	2.38
312.214	2.8
312.583	3.12
312.952	3.44
313.321	3.65
313.69	3.74
314.059	3.66
314.428	3.89
314.797	4.11
315.166	3.75
315.535	3.4
315.904	3.18
316.272	3.36
316.641	3.46
317.01	3.71
317.379	3.87
317.747	4.25
318.116	4.66
318.484	4.58
318.853	4.96
319.221	4.69
319.59	5.06
319.958	5.3
320.327	5.72
320.695	5.9
321.063	6.24
321.432	6.62
321.8	7.11
322.168	7.76
322.536	7.97
322.905	8.39
323.273	8.86
323.641	9.07
324.009	9.21
324.377	9.67
324.745	10.01
325.113	10.42
325.481	10.81
325.849	11.12
326.216	11.56
326.584	11.75
326.952	12.07
327.32	12.23
327.687	12.69
328.055	13.06
328.423	13.27
328.79	13.22
329.158	13.03
329.525	13.26
329.893	13.37
330.26	13.79
330.628	13.92
330.995	14.21
331.362	14.54
331.73	14.92
332.097	15.27
332.464	15.53
332.831	15.71
333.199	16.04
333.566	16.33
333.933	16.43
334.3	16.51
334.667	16.76
335.034	16.93
335.401	16.92
335.768	16.86
336.135	16.99
336.502	17.35
336.868	17.82
337.235	18.05
337.602	18.22
337.969	18.37
338.335	18.74
338.702	18.99
339.069	19.14
339.435	19.31
339.802	19.45
340.168	19.79
340.535	19.94
340.901	19.89
341.267	20.22
341.634	20.5
342	20.88
342.366	21.07
342.733	21.23
343.099	21.48
343.465	21.82
343.831	22.04
344.197	22.27
344.563	22.48
344.929	22.63
345.295	22.83
345.661	23
346.027	23.17
346.393	23.35
346.759	23.45
347.125	23.52
347.491	23.76
347.856	23.78
348.222	23.99
348.588	24.26
348.953	24.17
349.319	24.36
349.684	24.44
350.05	24.48
350.415	24.66
350.781	24.84
351.146	24.96
351.512	25.07
351.877	25.18
352.242	25.26
352.608	25.48
352.973	25.56
353.338	25.66
353.703	25.75
354.068	25.84
354.433	26.09
354.798	26.22
355.164	26.3
355.528	26.29
355.893	26.32
356.258	26.36
356.623	26.56
356.988	26.71
357.353	26.91
357.718	27.18
358.082	27.37
358.447	27.37
358.812	27.36
359.176	27.53
359.541	27.63
359.905	27.77
360.27	27.88
360.634	28
360.999	28.08
361.363	28.24
361.728	28.28
362.092	28.35
362.456	28.38
362.821	28.33
363.185	28.56
363.549	28.77
363.913	28.9
364.277	29.03
364.641	29.16
365.005	29.21
365.369	29.37
365.733	29.53
366.097	29.81
366.461	30.02
366.825	30.16
367.189	30.36
367.553	30.54
367.916	30.68
368.28	30.79
368.644	30.97
369.007	31.03
369.371	31.16
369.734	31.25
370.098	31.45
370.461	31.61
370.825	31.7
371.188	31.82
371.552	31.92
371.915	32.04
372.278	32.09
372.642	32.21
373.005	32.24
373.368	32.32
373.731	32.39
374.094	32.53
374.457	32.65
374.82	32.69
375.183	32.73
375.546	32.83
375.909	32.97
376.272	33
376.635	33.09
376.998	33.22
377.361	33.37
377.723	33.56
378.086	33.77
378.449	33.88
378.811	33.98
379.174	34.09
379.537	34.17
379.899	34.34
380.262	34.47
380.624	34.54
380.987	34.59
381.349	34.68
381.711	34.77
382.074	34.79
382.436	34.9
382.798	35.03
383.16	35.06
383.522	35.2
383.884	35.26
384.247	35.38
384.609	35.47
384.971	35.51
385.333	35.49
385.695	35.48
386.056	35.51
386.418	35.52
386.78	35.61
387.142	35.62
387.504	35.65
387.865	35.67
388.227	35.74
388.589	35.81
388.95	35.84
389.312	35.85
389.673	35.9
390.035	35.89
390.396	35.87
390.758	35.91
391.119	35.87
391.48	35.96
391.842	35.99
392.203	36.04
392.564	36.11
392.925	36.16
393.286	36.21
393.648	36.26
394.009	36.36
394.37	36.37
394.731	36.46
395.092	36.51
395.452	36.51
395.813	36.56
396.174	36.58
396.535	36.58
396.896	36.61
397.257	36.71
397.617	36.8
397.978	36.93
398.338	37
398.699	37.1
399.06	37.15
399.42	37.21
399.781	37.23
400.141	37.24
400.501	37.27
400.862	37.35
401.222	37.37
401.582	37.34
401.943	37.32
402.303	37.36
402.663	37.38
403.023	37.43
403.383	37.48
403.743	37.52
404.103	37.63
404.463	37.71
404.823	37.72
405.183	37.73
405.543	37.7
405.903	37.71
406.262	37.7
406.622	37.68
406.982	37.68
407.342	37.7
407.701	37.69
408.061	37.66
408.42	37.62
408.78	37.61
409.139	37.65
409.499	37.76
409.858	37.79
410.217	37.79
410.577	37.84
410.936	37.85
411.295	37.85
411.655	37.79
412.014	37.72
412.373	37.68
412.732	37.65
413.091	37.66
413.45	37.6
413.809	37.6
414.168	37.59
414.527	37.53
414.886	37.44
415.245	37.4
415.603	37.38
415.962	37.32
416.321	37.27
416.679	37.22
417.038	37.09
417.397	36.99
417.755	36.91
418.114	36.84
418.472	36.77
418.831	36.7
419.189	36.66
419.547	36.63
419.906	36.56
420.264	36.49
420.622	36.41
420.981	36.38
421.339	36.32
421.697	36.25
422.055	36.18
422.413	36.17
422.771	36.11
423.129	36.06
423.487	36.04
423.845	36
424.203	35.96
424.56	35.94
424.918	35.88
425.276	35.83
425.634	35.77
425.991	35.71
426.349	35.68
426.707	35.63
427.064	35.56
427.422	35.52
427.779	35.5
428.137	35.41
428.494	35.29
428.851	35.21
429.209	35.12
429.566	35.05
429.923	34.91
430.28	34.83
430.637	34.78
430.995	34.67
431.352	34.59
431.709	34.5
432.066	34.45
432.423	34.36
432.78	34.29
433.137	34.23
433.493	34.14
433.85	34.05
434.207	33.95
434.564	33.85
434.92	33.75
435.277	33.64
435.634	33.53
435.99	33.4
436.347	33.25
436.703	33.11
437.06	32.96
437.416	32.84
437.773	32.71
438.129	32.58
438.485	32.46
438.841	32.33
439.198	32.23
439.554	32.09
439.91	31.99
440.266	31.9
440.622	31.8
440.978	31.7
441.334	31.55
441.69	31.41
442.046	31.25
442.402	31.08
442.758	30.89
443.113	30.73
443.469	30.56
443.825	30.42
444.181	30.27
444.536	30.15
444.892	30.02
445.247	29.89
445.603	29.77
445.958	29.69
446.314	29.61
446.669	29.51
447.025	29.42
447.38	29.34
447.735	29.22
448.09	29.09
448.446	28.96
448.801	28.83
449.156	28.69
449.511	28.56
449.866	28.42
450.221	28.29
450.576	28.14
450.931	28.01
451.286	27.85
451.641	27.72
451.995	27.57
452.35	27.43
452.705	27.31
453.06	27.15
453.414	27.02
453.769	26.88
454.123	26.75
454.478	26.61
454.832	26.42
455.187	26.26
455.541	26.06
455.896	25.86
456.25	25.66
456.604	25.51
456.958	25.36
457.313	25.24
457.667	25.12
458.021	25.01
458.375	24.94
458.729	24.85
459.083	24.75
459.437	24.68
459.791	24.59
460.145	24.51
460.499	24.43
460.852	24.32
461.206	24.22
461.56	24.13
461.914	24.03
462.267	23.94
462.621	23.85
462.974	23.76
463.328	23.65
463.681	23.53
464.035	23.4
464.388	23.27
464.742	23.13
465.095	22.99
465.448	22.86
465.801	22.71
466.155	22.6
466.508	22.47
466.861	22.34
467.214	22.21
467.567	22.1
467.92	21.98
468.273	21.89
468.626	21.77
468.979	21.64
469.332	21.5
469.684	21.37
470.037	21.26
470.39	21.14
470.743	21.04
471.095	20.93
471.448	20.84
471.8	20.74
472.153	20.63
472.505	20.53
472.858	20.41
473.21	20.29
473.562	20.15
473.915	20.05
474.267	19.92
474.619	19.81
474.971	19.68
475.324	19.56
475.676	19.43
476.028	19.32
476.38	19.2
476.732	19.12
477.084	19.02
477.436	18.9
477.787	18.77
478.139	18.65
478.491	18.5
478.843	18.34
479.195	18.15
479.546	17.94
479.898	17.7
480.249	17.5
480.601	17.33
480.952	17.18
481.304	17.06
481.655	16.96
482.007	16.88
482.358	16.79
482.709	16.71
483.061	16.63
483.412	16.54
483.763	16.45
484.114	16.35
484.465	16.26
484.816	16.19
485.167	16.11
485.518	16.05
485.869	16
486.22	15.95
486.571	15.91
486.922	15.87
487.272	15.8
487.623	15.68
487.974	15.55
488.324	15.42
488.675	15.32
489.025	15.25
489.376	15.17
489.726	15.12
490.077	15.08
490.427	15.04
490.778	14.99
491.128	14.94
491.478	14.91
491.828	14.87
492.179	14.82
492.529	14.79
492.879	14.73
493.229	14.68
493.579	14.62
493.929	14.55
494.279	14.49
494.629	14.44
494.979	14.41
495.328	14.36
495.678	14.31
496.028	14.25
496.378	14.2
496.727	14.14
497.077	14.09
497.426	14.03
497.776	13.95
498.125	13.9
498.475	13.85
498.824	13.79
499.174	13.75
499.523	13.67
499.872	13.62
500.221	13.58
500.571	13.54
500.92	13.47
501.269	13.42
501.618	13.36
501.967	13.32
502.316	13.26
502.665	13.21
503.014	13.15
503.363	13.1
503.711	13.03
504.06	12.95
504.409	12.87
504.758	12.78
505.106	12.71
505.455	12.65
505.803	12.59
506.152	12.5
506.5	12.44
506.849	12.38
507.197	12.3
507.546	12.24
507.894	12.18
508.242	12.14
508.59	12.07
508.939	12.04
509.287	11.98
509.635	11.95
509.983	11.9
510.331	11.85
510.679	11.81
511.027	11.78
511.375	11.74
511.723	11.71
512.07	11.68
512.418	11.66
512.766	11.61
513.114	11.58
513.461	11.55
513.809	11.52
514.156	11.49
514.504	11.44
514.851	11.38
515.199	11.3
515.546	11.25
515.893	11.2
516.241	11.16
516.588	11.09
516.935	11.04
517.282	11.01
517.63	10.97
517.977	10.93
518.324	10.88
518.671	10.86
519.018	10.84
519.365	10.81
519.711	10.78
520.058	10.76
520.405	10.71
520.752	10.7
521.099	10.66
521.445	10.61
521.792	10.57
522.138	10.53
522.485	10.49
522.832	10.44
523.178	10.41
523.524	10.37
523.871	10.33
524.217	10.28
524.563	10.2
524.91	10.09
525.256	9.99
525.602	9.92
525.948	9.86
526.294	9.81
526.64	9.76
526.986	9.74
527.332	9.7
527.678	9.67
528.024	9.65
528.37	9.62
528.716	9.59
529.061	9.57
529.407	9.53
529.753	9.49
530.098	9.45
530.444	9.41
530.789	9.38
531.135	9.36
531.48	9.35
531.826	9.34
532.171	9.33
532.516	9.33
532.862	9.29
533.207	9.28
533.552	9.25
533.897	9.23
534.242	9.19
534.587	9.17
534.932	9.15
535.277	9.12
535.622	9.11
535.967	9.1
536.312	9.09
536.657	9.08
537.001	9.07
537.346	9.05
537.691	9.02
538.035	8.98
538.38	8.91
538.724	8.87
539.069	8.82
539.413	8.81
539.758	8.77
540.102	8.75
540.446	8.71
540.791	8.68
541.135	8.68
541.479	8.67
541.823	8.66
542.167	8.64
542.512	8.63
542.856	8.6
543.2	8.57
543.543	8.54
543.887	8.52
544.231	8.5
544.575	8.49
544.919	8.49
545.262	8.48
545.606	8.47
545.95	8.46
546.293	8.45
546.637	8.44
546.98	8.43
547.324	8.41
547.667	8.42
548.011	8.38
548.354	8.34
548.697	8.3
549.04	8.29
549.384	8.27
549.727	8.22
550.07	8.2
550.413	8.19
550.756	8.17
551.099	8.14
551.442	8.11
551.785	8.09
552.128	8.06
552.47	8.03
552.813	8
553.156	7.97
553.499	7.95
553.841	7.91
554.184	7.89
554.526	7.85
554.869	7.82
555.211	7.8
555.554	7.79
555.896	7.76
556.238	7.7
556.581	7.69
556.923	7.64
557.265	7.6
557.607	7.55
557.949	7.51
558.291	7.47
558.633	7.45
558.975	7.42
559.317	7.37
559.659	7.33
560.001	7.3
560.343	7.27
560.685	7.23
561.026	7.21
561.368	7.16
561.71	7.11
562.051	7.07
562.393	7.05
562.734	7
563.076	6.98
563.417	6.94
563.759	6.9
564.1	6.88
564.441	6.85
564.782	6.84
565.124	6.79
565.465	6.76
565.806	6.72
566.147	6.66
566.488	6.64
566.829	6.59
567.17	6.55
567.511	6.5
567.851	6.47
568.192	6.41
568.533	6.4
568.874	6.4
569.214	6.38
569.555	6.34
569.895	6.32
570.236	6.28
570.576	6.26
570.917	6.22
571.257	6.2
571.598	6.16
571.938	6.11
572.278	6.12
572.618	6.09
572.959	6.05
573.299	6.03
573.639	6
573.979	6
574.319	5.98
574.659	5.94
574.999	5.9
575.339	5.86
575.678	5.81
576.018	5.74
576.358	5.71
576.698	5.66
577.037	5.61
577.377	5.56
577.716	5.52
578.056	5.51
578.395	5.45
578.735	5.42
579.074	5.36
579.413	5.27
579.753	5.23
580.092	5.19
580.431	5.15
580.77	5.11
581.109	5.05
581.448	5.02
581.787	4.99
582.126	4.95
582.465	4.96
582.804	4.94
583.143	4.94
583.482	4.9
583.82	4.88
584.159	4.85
584.498	4.8
584.836	4.78
585.175	4.74
585.514	4.74
585.852	4.74
586.19	4.75
586.529	4.74
586.867	4.74
587.205	4.75
587.544	4.76
587.882	4.73
588.22	4.7
588.558	4.69
588.896	4.69
589.234	4.69
589.572	4.65
589.91	4.63
590.248	4.59
590.586	4.58
590.924	4.57
591.262	4.55
591.599	4.55
591.937	4.51
592.275	4.49
592.612	4.47
592.95	4.44
593.287	4.43
593.625	4.45
593.962	4.45
594.299	4.45
594.637	4.43
594.974	4.43
595.311	4.42
595.648	4.41
595.985	4.41
596.322	4.39
596.659	4.39
596.996	4.38
597.333	4.37
597.67	4.34
598.007	4.31
598.344	4.28
598.681	4.26
599.017	4.26
599.354	4.26
599.691	4.21
600.027	4.2
600.364	4.19
600.7	4.15
601.037	4.13
601.373	4.12
601.71	4.12
602.046	4.12
602.382	4.14
602.718	4.11
603.054	4.08
603.391	4.05
603.727	4.04
604.063	4.03
604.399	3.99
604.735	3.99
605.071	3.99
605.406	3.97
605.742	3.97
606.078	3.98
606.414	3.97
606.749	3.99
607.085	3.98
607.421	3.94
607.756	3.9
608.092	3.85
608.427	3.79
608.762	3.73
609.098	3.66
609.433	3.61
609.768	3.59
610.104	3.57
610.439	3.56
610.774	3.54
611.109	3.51
611.444	3.51
611.779	3.48
612.114	3.45
612.449	3.41
612.784	3.37
613.118	3.32
613.453	3.28
613.788	3.2
614.123	3.12
614.457	3.09
614.792	3.09
615.126	3.07
615.461	3.05
615.795	2.99
616.13	2.97
616.464	2.94
616.798	2.9
617.132	2.87
617.467	2.86
617.801	2.81
618.135	2.8
618.469	2.77
618.803	2.75
619.137	2.74
619.471	2.75
619.805	2.73
620.139	2.68
620.472	2.63
620.806	2.61
621.14	2.61
621.473	2.6
621.807	2.54
622.141	2.52
622.474	2.48
622.808	2.47
623.141	2.47
623.474	2.49
623.808	2.51
624.141	2.52
624.474	2.52
624.807	2.55
625.141	2.55
625.474	2.55
625.807	2.57
626.14	2.6
626.473	2.62
626.806	2.65
627.138	2.66
627.471	2.65
627.804	2.66
628.137	2.64
628.469	2.6
628.802	2.58
629.135	2.55
629.467	2.53
629.8	2.52
630.132	2.51
630.465	2.48
630.797	2.45
631.129	2.46
631.461	2.45
631.794	2.45
632.126	2.42
632.458	2.42
632.79	2.39
633.122	2.36
633.454	2.35
633.786	2.29
634.118	2.28
634.45	2.28
634.781	2.25
635.113	2.26
635.445	2.26
635.777	2.28
636.108	2.3
636.44	2.32
636.771	2.31
637.103	2.31
637.434	2.3
637.765	2.28
638.097	2.21
638.428	2.17
638.759	2.1
639.09	2.05
639.422	2
639.753	1.95
640.084	1.93
640.415	1.91
640.746	1.88
641.077	1.83
641.407	1.79
641.738	1.77
642.069	1.78
642.4	1.75
642.73	1.75
643.061	1.72
643.392	1.7
643.722	1.71
644.053	1.66
644.383	1.63
644.713	1.62
645.044	1.62
645.374	1.59
645.704	1.56
646.034	1.61
646.365	1.63
646.695	1.63
647.025	1.61
647.355	1.6
647.685	1.59
648.015	1.64
648.344	1.67
648.674	1.67
649.004	1.67
649.334	1.71
649.663	1.69
649.993	1.7
650.323	1.7
650.652	1.64
650.982	1.62
651.311	1.62
651.64	1.62
651.97	1.62
652.299	1.64
652.628	1.67
652.958	1.66
653.287	1.65
653.616	1.62
653.945	1.62
654.274	1.58
654.603	1.56
654.932	1.53
655.261	1.59
655.589	1.61
655.918	1.68
656.247	1.74
656.576	1.78
656.904	1.83
657.233	1.88
657.561	1.91
657.89	2.01
658.218	2
658.547	2.02
658.875	2.05
659.203	2.05
659.532	2.03
659.86	2
660.188	1.99
660.516	2.02
660.844	1.99
661.172	1.98
661.5	1.97
661.828	1.94
662.156	1.83
662.484	1.77
662.811	1.67
663.139	1.58
663.467	1.54
663.794	1.45
664.122	1.37
664.45	1.32
664.777	1.22
665.104	1.22
665.432	1.15
665.759	1.11
666.086	1.09
666.414	1.13
666.741	1.13
667.068	1.12
667.395	1.09
667.722	1.09
668.049	1.1
668.376	1.09
668.703	1.09
669.03	1.12
669.357	1.08
669.683	1.08
670.01	1.1
670.337	1.08
670.663	1.05
670.99	0.99
671.317	0.98
671.643	1.02
671.969	1.02
672.296	1.04
672.622	0.97
672.948	0.91
673.275	0.82
673.601	0.8
673.927	0.77
674.253	0.77
674.579	0.74
674.905	0.7
675.231	0.74
675.557	0.78
675.883	0.8
676.209	0.86
676.534	0.88
676.86	0.89
677.186	0.9
677.511	0.98
677.837	1.02
678.162	1.01
678.488	1.01
678.813	1.01
679.139	1.03
679.464	1.1
679.789	1.14
680.114	1.18
680.44	1.19
680.765	1.19
681.09	1.2
681.415	1.25
681.74	1.24
682.065	1.21
682.39	1.15
682.714	1.1
683.039	1.06
683.364	1.01
683.689	0.98
684.013	0.94
684.338	0.86
684.662	0.88
684.987	0.93
685.311	0.91
685.636	0.9
685.96	0.84
686.284	0.74
686.608	0.65
686.933	0.59
687.257	0.54
687.581	0.53
687.905	0.54
688.229	0.57
688.553	0.59
688.877	0.6
689.201	0.63
689.524	0.64
689.848	0.58
690.172	0.56
690.496	0.54
690.819	0.5
691.143	0.46
691.466	0.43
691.79	0.38
692.113	0.33
692.436	0.25
692.76	0.27
693.083	0.27
693.406	0.3
693.729	0.3
694.053	0.37
694.376	0.35
694.699	0.33
695.022	0.37
695.344	0.45
695.667	0.57
695.99	0.73
696.313	0.84
696.636	1.02
696.958	1.12
697.281	1.16
697.604	1.22
697.926	1.29
698.249	1.29
698.571	1.3
698.893	1.3
699.216	1.27
699.538	1.23
699.86	1.22
700.182	1.22
700.504	1.24
700.827	1.2
701.149	1.22
701.471	1.14
701.793	1.02
702.114	0.88
702.436	0.72
702.758	0.5
703.08	0.29
703.401	0.05
703.723	-0.16
704.045	-0.29
704.366	-0.4
704.688	-0.54
705.009	-0.6
705.331	-0.67
705.652	-0.66
705.973	-0.56
706.294	-0.55
706.616	-0.54
706.937	-0.57
707.258	-0.59
707.579	-0.54
707.9	-0.54
708.221	-0.45
708.542	-0.44
708.863	-0.38
709.183	-0.4
709.504	-0.41
709.825	-0.36
710.145	-0.31
710.466	-0.31
710.787	-0.32
711.107	-0.34
711.427	-0.32
711.748	-0.24
712.068	-0.23
712.388	-0.16
712.709	-0.17
713.029	-0.12
713.349	-0.14
713.669	-0.04
713.989	0.04
714.309	0.07
714.629	0.03
714.949	0
715.269	-0.02
715.589	0.02
715.908	0.13
716.228	0.2
716.548	0.22
716.867	0.23
717.187	0.33
717.506	0.43
717.826	0.53
718.145	0.58
718.465	0.56
718.784	0.64
719.103	0.54
719.422	0.57
719.741	0.6
720.061	0.78
720.38	0.79
720.699	0.78
721.018	0.77
721.336	0.8
721.655	0.95
721.974	1.06
722.293	1.09
722.612	1.16
722.93	1.22
723.249	1.39
723.567	1.55
723.886	1.7
724.204	1.74
724.523	1.82
724.841	1.95
725.159	2.12
725.477	2.17
725.796	2.35
726.114	2.57
726.432	2.69
726.75	2.77
727.068	2.88
727.386	2.95
727.704	3.16
728.022	3.35
728.339	3.42
728.657	3.59
728.975	3.74
729.292	3.84
729.61	3.95
729.928	3.98
730.245	4.03
730.562	4.1
730.88	4.28
731.197	4.42
731.514	4.51
731.832	4.59
732.149	4.76
732.466	4.89
732.783	4.95
733.1	5.1
733.417	5.3
733.734	5.38
734.051	5.48
734.368	5.53
734.684	5.71
735.001	5.75
735.318	5.8
735.634	5.9
735.951	5.92
736.268	6.08
736.584	6.36
736.9	6.57
737.217	6.63
737.533	6.69
737.849	6.76
738.166	6.92
738.482	7.07
738.798	7.24
739.114	7.35
739.43	7.46
739.746	7.63
740.062	7.64
740.378	7.76
740.693	7.98
741.009	8.17
741.325	8.22
741.641	8.46
741.956	8.59
742.272	8.8
742.587	9.07
742.903	9.23
743.218	9.31
743.533	9.34
743.849	9.52
744.164	9.66
744.479	9.82
744.794	9.98
745.109	10.01
745.424	10.11
745.739	10.24
746.054	10.32
746.369	10.25
746.684	10.35
746.999	10.4
747.313	10.43
747.628	10.42
747.943	10.6
748.257	10.61
748.572	10.71
748.886	10.77
749.201	10.77
749.515	10.72
749.829	10.8
750.144	10.89
750.458	10.99
750.772	11.05
751.086	11.21
751.4	11.21
751.714	11.36
752.028	11.43
752.342	11.45
752.656	11.46
752.97	11.56
753.284	11.62
753.597	11.75
753.911	11.85
754.225	11.93
754.538	11.99
754.852	12.15
755.165	12.33
755.478	12.22
755.792	12.17
756.105	12.3
756.418	12.24
756.731	12.39
757.045	12.48
757.358	12.59
757.671	12.52
757.984	12.64
758.297	12.72
758.609	12.71
758.922	12.85
759.235	12.91
759.548	13.02
759.86	13.05
760.173	12.89
760.486	12.73
760.798	12.58
761.111	12.36
761.423	12.19
761.735	12.12
762.048	12.13
762.36	12.31
762.672	12.37
762.984	12.44
763.296	12.46
763.608	12.53
763.92	12.63
764.232	12.79
764.544	12.83
764.856	12.92
765.168	13.02
765.48	13.11
765.791	13.32
766.103	13.45
766.414	13.58
766.726	13.96
767.037	14.28
767.349	14.67
767.66	15.1
767.972	15.63
768.283	16.13
768.594	16.7
768.905	16.91
769.216	17.12
769.527	17.64
769.838	18.01
770.149	18.1
770.46	18.37
770.771	18.67
771.082	18.94
771.393	19.09
771.703	19.42
772.014	19.56
772.324	19.72
772.635	19.81
772.945	19.97
773.256	20.16
773.566	20.4
773.877	20.56
774.187	20.92
774.497	20.92
774.807	20.82
775.117	20.87
775.427	21.18
775.737	21.35
776.047	21.38
776.357	21.56
776.667	21.79
776.977	21.84
777.287	21.83
777.596	21.84
777.906	21.83
778.216	21.68
778.525	21.79
778.835	21.77
779.144	21.88
779.453	21.94
779.763	22.09
780.072	21.94
780.381	21.8
780.69	21.81
781	21.88
781.309	22.07
781.618	22.26
781.927	22.29
782.235	22.4
782.544	22.37
782.853	22.24
783.162	22.42
783.471	22.63
783.779	22.79
784.088	22.93
784.396	23.13
784.705	23.25
785.013	23.24
785.322	23.42
785.63	23.33
785.938	23.14
786.246	22.85
786.554	22.95
786.863	23.21
787.171	23.15
787.479	23.4
787.787	23.52
788.094	23.52
788.402	23.64
788.71	23.8
789.018	23.61
789.326	23.65
789.633	23.77
789.941	23.78
790.248	23.91
790.556	24.06
790.863	24.15
791.171	24.18
791.478	24.26
791.785	24.45
792.092	24.75
792.399	25.4
792.707	25.85
793.014	26.13
793.321	26.23
793.628	25.99
793.934	25.66
794.241	25.34
794.548	25.25
794.855	25.03
795.161	24.89
795.468	25.2
795.775	25.31
796.081	25.32
796.388	25.46
796.694	25.23
797	25.11
797.307	25.06
797.613	24.94
797.919	24.99
798.225	24.86
798.531	24.92
798.837	24.76
799.143	24.72
799.449	24.9
799.755	24.99
800.061	25.45
800.367	25.76
800.672	26.08
800.978	26.57
801.284	26.95
801.589	27.37
801.895	27.34
802.2	27.61
802.506	27.6
802.811	27.31
803.116	27.53
803.421	27.9
803.727	28.15
804.032	28.49
804.337	28.76
804.642	28.96
804.947	28.93
805.252	28.96
805.556	29.17
805.861	29.15
806.166	29.29
806.471	29.28
806.775	29.42
807.08	29.71
807.384	29.63
807.689	29.43
807.993	29.29
808.298	29.41
808.602	29.18
808.906	29.24
809.211	29.5
809.515	29.51
809.819	29.31
810.123	29.23
810.427	29.55
810.731	29.77
811.035	29.88
811.338	29.99
811.642	30.14
811.946	30.32
812.25	30.37
812.553	30.35
812.857	30.48
813.16	30.9
813.464	30.92
813.767	30.75
814.07	31.05
814.374	31.18
814.677	31.22
814.98	31.41
815.283	31.43
815.586	31.25
815.889	31.24
816.192	31.33
816.495	31.05
816.798	30.41
817.101	29.66
817.404	28.99
817.706	28.52
818.009	27.66
818.312	26.7
818.614	25.44
818.917	23.89
819.219	21.58
819.521	19.36
819.824	17.38
820.126	15.97
820.428	14.9
820.73	14.01
821.032	13.41
821.334	12.99
821.636	12.75
821.938	12.65
822.24	12.5
822.542	12.37
822.844	12.26
823.145	12.21
823.447	12.09
823.749	12.03
824.05	11.81
824.352	11.71
824.653	11.63
824.955	11.59
825.256	11.61
825.557	11.8
825.858	11.98
826.16	12.35
826.461	12.81
826.762	13.27
827.063	13.8
827.364	14.4
827.665	14.97
827.965	15.39
828.266	15.8
828.567	16.26
828.868	16.53
829.168	16.84
829.469	17.1
829.769	17.54
830.07	17.79
830.37	18.46
830.67	19.11
830.971	19.55
831.271	20.01
831.571	20.35
831.871	20.61
832.171	20.96
832.471	21.13
832.771	21
833.071	21.13
833.371	21.47
833.671	21.51
833.971	21.68
834.27	21.65
834.57	21.53
834.869	21.47
835.169	21.71
835.468	21.97
835.768	22.14
836.067	22.29
836.367	22.7
836.666	23.04
836.965	23.47
837.264	24.09
837.563	25.24
837.862	26.1
838.161	27.18
838.46	28.1
838.759	28.92
839.058	30.14
839.356	31.16
839.655	31.63
839.954	32.31
840.252	32.84
840.551	33.92
840.849	34.81
841.148	35.4
841.446	35.8
841.744	36.19
842.043	36.63
842.341	36.71
842.639	37.04
842.937	37.54
843.235	37.77
843.533	38.76
843.831	39.24
844.129	40.59
844.427	41.93
844.724	43.21
845.022	44.66
845.32	45.97
845.617	47.68
845.915	49.68
846.212	50.63
846.51	51.56
846.807	51.89
847.104	52.31
847.402	52.77
847.699	52.4
847.996	52.58
848.293	52.96
848.59	53.46
848.887	53.28
849.184	52.86
849.481	53.55
849.778	53.91
850.074	54.45
850.371	54.48
850.668	54.59
850.964	54.45
851.261	54.96
851.557	55.18
851.854	54.4
852.15	53.86
852.446	54.12
852.743	54.16
853.039	54.07
853.335	54.01
853.631	54.27
853.927	55.53
854.223	55.39
854.519	54.55
854.815	54.57
855.111	54.79
855.406	55.16
855.702	55.07
855.998	54.53
856.293	54.34
856.589	54.62
856.884	54.52
857.18	54.67
857.475	54.33
857.77	54.04
858.066	54.07
858.361	53.21
858.656	52.59
858.951	52.18
859.246	51.78
859.541	51.1
859.836	50.23
860.131	50.09
860.426	50.74
860.72	52.3
861.015	53.29
861.31	53.42
861.604	53.42
861.899	52.95
862.193	52.99
862.487	52.22
862.782	52.33
863.076	52.96
863.37	53.16
863.664	53.33
863.959	54
864.253	54.16
864.547	55.67
864.841	56.04
865.135	56.04
865.428	56.37
865.722	57.83
866.016	59.45
866.31	58.82
866.603	58.49
866.897	57.58
867.19	57.21
867.484	57.14
867.777	57.12
868.07	57.73
868.364	57.24
868.657	57.71
868.95	57.88
869.243	56.76
869.536	56.18
869.829	56.58
870.122	55.92
870.415	56.1
870.708	55.41
871	55
871.293	54.53
871.586	53.92
871.878	52.74
872.171	51.59
872.463	51.76
872.756	51.09
873.048	50.73
873.341	50.21
873.633	49.99
873.925	50.23
874.217	50.19
874.509	50.72
874.801	50.39
875.093	49.41
875.385	49.57
875.677	49.72
875.969	47.57
