Data from pcis_p_m4_p1_Reflection_4.txt Node
Date: Wed Jul 12 17:56:59 ART 2017
User: rodoncho
Spectrometer: USB2E3644
Trigger mode: 4
Integration Time (sec): 6.000000E-2
Scans to average: 10
Electric dark correction enabled: true
Nonlinearity correction enabled: false
Boxcar width: 10
XAxis mode: Wavelengths
Number of Pixels in Spectrum: 2048
>>>>>Begin Spectral Data<<<<<
178.315	-8.88
178.696	22.09
179.076	38.33
179.457	50
179.838	35
180.218	102.33
180.599	92.45
180.979	-200
181.36	117.5
181.74	101.03
182.121	-100
182.501	83.13
182.881	77.82
183.262	46.07
183.642	-11.96
184.022	-1112.5
184.402	196.59
184.783	129.79
185.163	150.67
185.543	144.42
185.923	137.81
186.303	139.35
186.683	139.42
187.063	140.58
187.443	142.17
187.823	149.85
188.203	161.9
188.583	160.05
188.963	152.76
189.343	150.05
189.723	150.2
190.102	146.14
190.482	142.61
190.862	145.98
191.242	145.21
191.621	144.65
192.001	141.73
192.38	141.39
192.76	140.47
193.14	134.38
193.519	130.19
193.898	129.51
194.278	126.94
194.657	126.98
195.037	120.51
195.416	118.65
195.795	117.64
196.175	115.13
196.554	115.08
196.933	117.99
197.312	118.29
197.692	117.64
198.071	115.95
198.45	114.99
198.829	113.96
199.208	114.03
199.587	113.19
199.966	113.69
200.345	113.17
200.724	114.07
201.103	115.6
201.482	116.78
201.86	116.07
202.239	116.81
202.618	116.94
202.997	120.82
203.375	123.83
203.754	122.98
204.133	122.91
204.511	122.8
204.89	120.13
205.269	120.33
205.647	120.44
206.026	122.34
206.404	123.05
206.782	122
207.161	121.96
207.539	122.45
207.918	121.37
208.296	119.66
208.674	117.63
209.052	115.59
209.431	114.14
209.809	115.13
210.187	114.73
210.565	113.41
210.943	111.01
211.321	110.33
211.699	110.36
212.077	111.36
212.455	112.57
212.833	113.53
213.211	111.74
213.589	111.67
213.967	110.75
214.345	110.97
214.722	109.65
215.1	107.51
215.478	106.18
215.855	107.17
216.233	108.61
216.611	110.9
216.988	112.83
217.366	115.92
217.743	115.25
218.121	116.19
218.498	117.65
218.876	118.89
219.253	119.37
219.631	119.73
220.008	118.1
220.385	116.6
220.762	116.4
221.14	117.52
221.517	117.77
221.894	117.24
222.271	117.85
222.648	120.83
223.025	121.84
223.402	121.88
223.78	122.79
224.157	124.56
224.533	125.21
224.91	124.56
225.287	122.93
225.664	124.87
226.041	123.54
226.418	123.09
226.795	123.95
227.171	122.62
227.548	121.8
227.925	122.72
228.301	124.63
228.678	126.86
229.055	127.49
229.431	126.62
229.808	126.71
230.184	126.01
230.561	125.11
230.937	125.3
231.313	126.16
231.69	125.52
232.066	125.22
232.442	125.19
232.819	124.96
233.195	124.82
233.571	124.26
233.947	125.07
234.323	125.11
234.699	124.84
235.075	124.91
235.451	126.59
235.827	127.2
236.203	127.92
236.579	127.29
236.955	126.27
237.331	126.77
237.707	129.53
238.083	131.97
238.459	135.98
238.834	142.96
239.21	148.21
239.586	154.77
239.961	159.83
240.337	162.2
240.713	166.93
241.088	172.17
241.464	173.97
241.839	182.28
242.215	195.87
242.59	213.51
242.965	255.64
243.341	346.18
243.716	557.18
244.091	1183.8
244.467	10497.5
244.842	-1689.39
245.217	-785.14
245.592	-676.32
245.967	-604.62
246.343	-650.84
246.718	-757.77
247.093	-699.01
247.468	-643.03
247.843	-612.05
248.218	-484.29
248.593	-396.62
248.967	-325.94
249.342	-291.7
249.717	-289.11
250.092	-292.28
250.467	-304.37
250.841	-370.51
251.216	-605.54
251.591	-1481.88
251.965	6804.69
252.34	1422.48
252.714	955.51
253.089	678.01
253.463	643.14
253.838	600.27
254.212	657.04
254.587	852.77
254.961	1302.04
255.335	14309.68
255.71	-956.86
256.084	-376.18
256.458	-224.7
256.832	-165.16
257.206	-137.43
257.581	-124.69
257.955	-119.88
258.329	-113.53
258.703	-105.72
259.077	-98.83
259.451	-94.66
259.825	-87.61
260.199	-83.41
260.572	-79.98
260.946	-77.3
261.32	-75.78
261.694	-72.88
262.068	-70.44
262.441	-68.83
262.815	-68.02
263.189	-68.84
263.562	-72.48
263.936	-82.32
264.309	-97.19
264.683	-114.25
265.056	-126.3
265.43	-128.75
265.803	-124.98
266.176	-122.79
266.55	-122.66
266.923	-121.46
267.296	-117.38
267.67	-112.72
268.043	-103.38
268.416	-96.02
268.789	-86.63
269.162	-77.18
269.535	-71.22
269.908	-68
270.281	-66.21
270.654	-66.45
271.027	-68.64
271.4	-70.35
271.773	-70.77
272.146	-70.41
272.519	-68.19
272.891	-65.59
273.264	-64.75
273.637	-64.01
274.01	-64.4
274.382	-63.42
274.755	-61.83
275.127	-60.33
275.5	-61.41
275.872	-62.86
276.245	-62.85
276.617	-64.5
276.99	-68.11
277.362	-70.86
277.734	-71.32
278.107	-70.62
278.479	-67.35
278.851	-63.05
279.223	-59.8
279.596	-58.61
279.968	-56.32
280.34	-55.76
280.712	-54.2
281.084	-50.88
281.456	-46.36
281.828	-41.61
282.2	-38.22
282.572	-35.35
282.944	-33.43
283.315	-32.23
283.687	-31.23
284.059	-31.24
284.431	-30.44
284.802	-29.16
285.174	-28.22
285.546	-27.27
285.917	-26.96
286.289	-26.05
286.66	-25.27
287.032	-24.86
287.403	-23.66
287.775	-23.16
288.146	-22.42
288.518	-21.96
288.889	-22.31
289.26	-23.55
289.632	-24.54
290.003	-25.23
290.374	-26.05
290.745	-26.67
291.116	-26.24
291.487	-25.13
291.858	-23.56
292.229	-22.52
292.6	-21.4
292.971	-19.93
293.342	-18.65
293.713	-16.3
294.084	-15.17
294.455	-14.35
294.826	-13.51
295.196	-13.52
295.567	-13.66
295.938	-13.56
296.308	-13.69
296.679	-12.82
297.05	-11.67
297.42	-11.02
297.791	-10.07
298.161	-9.04
298.532	-8.29
298.902	-7.51
299.272	-7.05
299.643	-6.67
300.013	-6.5
300.383	-6.18
300.754	-5.87
301.124	-5.43
301.494	-5.54
301.864	-5.12
302.234	-5.27
302.604	-5.42
302.974	-5.35
303.344	-4.95
303.714	-4.3
304.084	-3.68
304.454	-3.33
304.824	-2.71
305.194	-1.69
305.563	-0.96
305.933	-0.43
306.303	0.42
306.673	1.03
307.042	1.77
307.412	2.68
307.781	3.83
308.151	4.58
308.521	5.18
308.89	5.48
309.259	6.04
309.629	6.08
309.998	6.63
310.368	7.14
310.737	7.43
311.106	7.8
311.475	7.92
311.845	8.42
312.214	8.9
312.583	9.18
312.952	9.25
313.321	9.32
313.69	9.24
314.059	8.95
314.428	8.77
314.797	8.64
315.166	7.92
315.535	7.38
315.904	7.28
316.272	7.17
316.641	6.99
317.01	7.25
317.379	7.41
317.747	7.5
318.116	7.75
318.484	8.06
318.853	8.36
319.221	8.73
319.59	8.99
319.958	9.13
320.327	9.34
320.695	9.62
321.063	9.91
321.432	10.64
321.8	11.14
322.168	11.93
322.536	12.64
322.905	13.52
323.273	13.85
323.641	14.04
324.009	13.92
324.377	14.29
324.745	14.18
325.113	14.32
325.481	14.71
325.849	15.05
326.216	15.4
326.584	15.7
326.952	15.7
327.32	15.98
327.687	16.56
328.055	16.81
328.423	16.81
328.79	16.89
329.158	16.85
329.525	17.16
329.893	17.21
330.26	17.09
330.628	17
330.995	17.36
331.362	17.68
331.73	18.41
332.097	18.69
332.464	18.91
332.831	19.3
333.199	19.46
333.566	19.55
333.933	19.74
334.3	19.82
334.667	20.13
335.034	20.11
335.401	20.07
335.768	19.99
336.135	20.26
336.502	20.43
336.868	20.67
337.235	20.87
337.602	21.09
337.969	21.27
338.335	21.59
338.702	21.65
339.069	21.76
339.435	21.82
339.802	21.94
340.168	22.17
340.535	22.28
340.901	22.41
341.267	22.64
341.634	22.86
342	23.12
342.366	23.27
342.733	23.49
343.099	23.66
343.465	23.91
343.831	24.15
344.197	24.37
344.563	24.32
344.929	24.48
345.295	24.65
345.661	24.99
346.027	25.1
346.393	25.31
346.759	25.33
347.125	25.48
347.491	25.72
347.856	25.81
348.222	25.92
348.588	26.05
348.953	26.17
349.319	26.23
349.684	26.28
350.05	26.5
350.415	26.63
350.781	26.73
351.146	26.93
351.512	27
351.877	27.22
352.242	27.45
352.608	27.49
352.973	27.61
353.338	27.64
353.703	27.68
354.068	27.92
354.433	28.11
354.798	28.21
355.164	28.24
355.528	28.33
355.893	28.44
356.258	28.51
356.623	28.62
356.988	28.81
357.353	29.09
357.718	29.18
358.082	29.37
358.447	29.4
358.812	29.5
359.176	29.62
359.541	29.63
359.905	29.72
360.27	29.93
360.634	30.15
360.999	30.15
361.363	30.37
361.728	30.3
362.092	30.43
362.456	30.46
362.821	30.58
363.185	30.64
363.549	30.78
363.913	30.94
364.277	30.95
364.641	30.96
365.005	30.99
365.369	31.05
365.733	31
366.097	31.21
366.461	31.2
366.825	31.27
367.189	31.41
367.553	31.64
367.916	31.7
368.28	31.75
368.644	31.99
369.007	32.09
369.371	32.29
369.734	32.42
370.098	32.6
370.461	32.67
370.825	32.86
371.188	33.05
371.552	33.17
371.915	33.3
372.278	33.43
372.642	33.55
373.005	33.74
373.368	33.9
373.731	34.01
374.094	34.16
374.457	34.25
374.82	34.35
375.183	34.36
375.546	34.44
375.909	34.55
376.272	34.52
376.635	34.6
376.998	34.66
377.361	34.69
377.723	34.77
378.086	34.95
378.449	35.01
378.811	34.97
379.174	35.03
379.537	35.13
379.899	35.2
380.262	35.3
380.624	35.3
380.987	35.43
381.349	35.44
381.711	35.52
382.074	35.58
382.436	35.65
382.798	35.71
383.16	35.82
383.522	35.9
383.884	36.04
384.247	36.15
384.609	36.21
384.971	36.26
385.333	36.3
385.695	36.28
386.056	36.41
386.418	36.54
386.78	36.62
387.142	36.61
387.504	36.71
387.865	36.74
388.227	36.78
388.589	36.82
388.95	36.92
389.312	36.96
389.673	37.06
390.035	37.12
390.396	37.19
390.758	37.2
391.119	37.21
391.48	37.3
391.842	37.29
392.203	37.35
392.564	37.39
392.925	37.43
393.286	37.49
393.648	37.44
394.009	37.46
394.37	37.45
394.731	37.54
395.092	37.59
395.452	37.6
395.813	37.68
396.174	37.72
396.535	37.72
396.896	37.78
397.257	37.82
397.617	37.87
397.978	37.92
398.338	37.98
398.699	38.04
399.06	38.08
399.42	38.14
399.781	38.2
400.141	38.25
400.501	38.29
400.862	38.35
401.222	38.47
401.582	38.48
401.943	38.53
402.303	38.58
402.663	38.64
403.023	38.69
403.383	38.71
403.743	38.71
404.103	38.79
404.463	38.8
404.823	38.8
405.183	38.81
405.543	38.87
405.903	38.93
406.262	38.95
406.622	38.94
406.982	38.93
407.342	38.95
407.701	38.98
408.061	38.96
408.42	38.99
408.78	38.92
409.139	38.98
409.499	38.98
409.858	38.99
410.217	38.94
410.577	38.95
410.936	38.97
411.295	39.04
411.655	39
412.014	39.03
412.373	39.02
412.732	38.99
413.091	38.93
413.45	38.88
413.809	38.88
414.168	38.81
414.527	38.75
414.886	38.67
415.245	38.61
415.603	38.57
415.962	38.44
416.321	38.43
416.679	38.36
417.038	38.26
417.397	38.22
417.755	38.12
418.114	38.07
418.472	37.98
418.831	37.89
419.189	37.84
419.547	37.78
419.906	37.71
420.264	37.64
420.622	37.56
420.981	37.5
421.339	37.42
421.697	37.35
422.055	37.31
422.413	37.26
422.771	37.19
423.129	37.15
423.487	37.13
423.845	37.08
424.203	37.04
424.56	37.02
424.918	36.96
425.276	36.93
425.634	36.89
425.991	36.83
426.349	36.8
426.707	36.77
427.064	36.7
427.422	36.67
427.779	36.64
428.137	36.58
428.494	36.5
428.851	36.43
429.209	36.36
429.566	36.3
429.923	36.21
430.28	36.17
430.637	36.09
430.995	36.02
431.352	35.95
431.709	35.89
432.066	35.86
432.423	35.79
432.78	35.72
433.137	35.61
433.493	35.54
433.85	35.44
434.207	35.32
434.564	35.21
434.92	35.07
435.277	34.95
435.634	34.82
435.99	34.68
436.347	34.54
436.703	34.38
437.06	34.22
437.416	34.1
437.773	33.97
438.129	33.83
438.485	33.73
438.841	33.58
439.198	33.47
439.554	33.33
439.91	33.21
440.266	33.09
440.622	32.99
440.978	32.86
441.334	32.72
441.69	32.59
442.046	32.46
442.402	32.27
442.758	32.09
443.113	31.95
443.469	31.77
443.825	31.63
444.181	31.5
444.536	31.38
444.892	31.25
445.247	31.11
445.603	31.01
445.958	30.88
446.314	30.79
446.669	30.7
447.025	30.59
447.38	30.51
447.735	30.41
448.09	30.3
448.446	30.2
448.801	30.07
449.156	29.94
449.511	29.78
449.866	29.69
450.221	29.58
450.576	29.42
450.931	29.29
451.286	29.15
451.641	29.02
451.995	28.85
452.35	28.71
452.705	28.58
453.06	28.43
453.414	28.32
453.769	28.16
454.123	28
454.478	27.86
454.832	27.69
455.187	27.52
455.541	27.31
455.896	27.1
456.25	26.9
456.604	26.7
456.958	26.54
457.313	26.38
457.667	26.24
458.021	26.12
458.375	26.01
458.729	25.9
459.083	25.81
459.437	25.7
459.791	25.61
460.145	25.51
460.499	25.42
460.852	25.31
461.206	25.2
461.56	25.09
461.914	24.99
462.267	24.87
462.621	24.75
462.974	24.63
463.328	24.51
463.681	24.37
464.035	24.24
464.388	24.09
464.742	23.98
465.095	23.83
465.448	23.71
465.801	23.59
466.155	23.47
466.508	23.34
466.861	23.22
467.214	23.09
467.567	22.97
467.92	22.85
468.273	22.73
468.626	22.62
468.979	22.53
469.332	22.38
469.684	22.26
470.037	22.14
470.39	22.01
470.743	21.89
471.095	21.76
471.448	21.65
471.8	21.55
472.153	21.42
472.505	21.31
472.858	21.19
473.21	21.07
473.562	20.92
473.915	20.79
474.267	20.66
474.619	20.54
474.971	20.41
475.324	20.3
475.676	20.18
476.028	20.08
476.38	19.95
476.732	19.84
477.084	19.71
477.436	19.57
477.787	19.47
478.139	19.35
478.491	19.23
478.843	19.09
479.195	18.94
479.546	18.72
479.898	18.47
480.249	18.24
480.601	18.07
480.952	17.92
481.304	17.81
481.655	17.7
482.007	17.61
482.358	17.53
482.709	17.45
483.061	17.36
483.412	17.27
483.763	17.19
484.114	17.11
484.465	17.03
484.816	16.96
485.167	16.88
485.518	16.82
485.869	16.76
486.22	16.71
486.571	16.66
486.922	16.62
487.272	16.55
487.623	16.45
487.974	16.32
488.324	16.2
488.675	16.08
489.025	16
489.376	15.95
489.726	15.87
490.077	15.81
490.427	15.77
490.778	15.71
491.128	15.66
491.478	15.61
491.828	15.58
492.179	15.53
492.529	15.48
492.879	15.42
493.229	15.37
493.579	15.31
493.929	15.25
494.279	15.19
494.629	15.13
494.979	15.06
495.328	14.99
495.678	14.93
496.028	14.89
496.378	14.84
496.727	14.77
497.077	14.72
497.426	14.68
497.776	14.62
498.125	14.57
498.475	14.51
498.824	14.44
499.174	14.37
499.523	14.31
499.872	14.26
500.221	14.22
500.571	14.15
500.92	14.1
501.269	14.05
501.618	13.98
501.967	13.92
502.316	13.86
502.665	13.81
503.014	13.76
503.363	13.7
503.711	13.65
504.06	13.59
504.409	13.52
504.758	13.43
505.106	13.36
505.455	13.32
505.803	13.25
506.152	13.19
506.5	13.13
506.849	13.07
507.197	13
507.546	12.94
507.894	12.89
508.242	12.84
508.59	12.79
508.939	12.76
509.287	12.71
509.635	12.68
509.983	12.63
510.331	12.6
510.679	12.54
511.027	12.5
511.375	12.47
511.723	12.44
512.07	12.41
512.418	12.38
512.766	12.32
513.114	12.3
513.461	12.27
513.809	12.23
514.156	12.19
514.504	12.14
514.851	12.07
515.199	12
515.546	11.93
515.893	11.89
516.241	11.85
516.588	11.79
516.935	11.77
517.282	11.73
517.63	11.69
517.977	11.65
518.324	11.62
518.671	11.59
519.018	11.55
519.365	11.52
519.711	11.49
520.058	11.45
520.405	11.4
520.752	11.37
521.099	11.32
521.445	11.29
521.792	11.24
522.138	11.21
522.485	11.17
522.832	11.14
523.178	11.09
523.524	11.05
523.871	11.02
524.217	10.95
524.563	10.87
524.91	10.79
525.256	10.71
525.602	10.64
525.948	10.58
526.294	10.53
526.64	10.49
526.986	10.45
527.332	10.43
527.678	10.41
528.024	10.39
528.37	10.37
528.716	10.35
529.061	10.32
529.407	10.28
529.753	10.25
530.098	10.21
530.444	10.17
530.789	10.14
531.135	10.12
531.48	10.11
531.826	10.11
532.171	10.09
532.516	10.07
532.862	10.04
533.207	10.04
533.552	10.02
533.897	10
534.242	10
534.587	9.99
534.932	9.98
535.277	9.95
535.622	9.93
535.967	9.92
536.312	9.91
536.657	9.91
537.001	9.89
537.346	9.87
537.691	9.83
538.035	9.78
538.38	9.75
538.724	9.69
539.069	9.64
539.413	9.61
539.758	9.58
540.102	9.57
540.446	9.53
540.791	9.51
541.135	9.5
541.479	9.47
541.823	9.46
542.167	9.43
542.512	9.42
542.856	9.4
543.2	9.38
543.543	9.37
543.887	9.35
544.231	9.35
544.575	9.34
544.919	9.33
545.262	9.33
545.606	9.33
545.95	9.33
546.293	9.33
546.637	9.31
546.98	9.32
547.324	9.3
547.667	9.3
548.011	9.28
548.354	9.26
548.697	9.23
549.04	9.21
549.384	9.18
549.727	9.15
550.07	9.13
550.413	9.11
550.756	9.08
551.099	9.07
551.442	9.02
551.785	8.98
552.128	8.97
552.47	8.92
552.813	8.89
553.156	8.85
553.499	8.83
553.841	8.82
554.184	8.78
554.526	8.75
554.869	8.71
555.211	8.66
555.554	8.63
555.896	8.58
556.238	8.56
556.581	8.55
556.923	8.51
557.265	8.48
557.607	8.45
557.949	8.42
558.291	8.36
558.633	8.34
558.975	8.3
559.317	8.27
559.659	8.25
560.001	8.23
560.343	8.2
560.685	8.17
561.026	8.12
561.368	8.06
561.71	8
562.051	7.96
562.393	7.95
562.734	7.9
563.076	7.88
563.417	7.84
563.759	7.81
564.1	7.79
564.441	7.75
564.782	7.7
565.124	7.65
565.465	7.63
565.806	7.6
566.147	7.59
566.488	7.56
566.829	7.52
567.17	7.47
567.511	7.43
567.851	7.4
568.192	7.39
568.533	7.38
568.874	7.36
569.214	7.36
569.555	7.31
569.895	7.27
570.236	7.23
570.576	7.18
570.917	7.15
571.257	7.11
571.598	7.1
571.938	7.08
572.278	7.05
572.618	7.02
572.959	6.99
573.299	6.95
573.639	6.92
573.979	6.9
574.319	6.88
574.659	6.85
574.999	6.82
575.339	6.77
575.678	6.73
576.018	6.69
576.358	6.66
576.698	6.63
577.037	6.6
577.377	6.57
577.716	6.57
578.056	6.55
578.395	6.51
578.735	6.45
579.074	6.4
579.413	6.37
579.753	6.31
580.092	6.29
580.431	6.27
580.77	6.24
581.109	6.22
581.448	6.18
581.787	6.17
582.126	6.12
582.465	6.11
582.804	6.08
583.143	6.05
583.482	6.01
583.82	5.97
584.159	5.96
584.498	5.92
584.836	5.86
585.175	5.81
585.514	5.8
585.852	5.77
586.19	5.77
586.529	5.76
586.867	5.78
587.205	5.77
587.544	5.78
587.882	5.75
588.22	5.71
588.558	5.7
588.896	5.68
589.234	5.68
589.572	5.65
589.91	5.62
590.248	5.6
590.586	5.59
590.924	5.6
591.262	5.59
591.599	5.59
591.937	5.59
592.275	5.58
592.612	5.56
592.95	5.55
593.287	5.53
593.625	5.54
593.962	5.52
594.299	5.52
594.637	5.5
594.974	5.49
595.311	5.5
595.648	5.49
595.985	5.5
596.322	5.46
596.659	5.44
596.996	5.43
597.333	5.4
597.67	5.39
598.007	5.37
598.344	5.33
598.681	5.29
599.017	5.25
599.354	5.23
599.691	5.2
600.027	5.19
600.364	5.17
600.7	5.17
601.037	5.14
601.373	5.12
601.71	5.11
602.046	5.1
602.382	5.09
602.718	5.08
603.054	5.07
603.391	5.07
603.727	5.08
604.063	5.08
604.399	5.09
604.735	5.08
605.071	5.09
605.406	5.09
605.742	5.1
606.078	5.11
606.414	5.12
606.749	5.14
607.085	5.14
607.421	5.13
607.756	5.1
608.092	5.05
608.427	5.01
608.762	4.96
609.098	4.91
609.433	4.87
609.768	4.83
610.104	4.8
610.439	4.79
610.774	4.8
611.109	4.76
611.444	4.74
611.779	4.71
612.114	4.65
612.449	4.62
612.784	4.58
613.118	4.55
613.453	4.49
613.788	4.4
614.123	4.33
614.457	4.25
614.792	4.21
615.126	4.18
615.461	4.15
615.795	4.14
616.13	4.13
616.464	4.13
616.798	4.12
617.132	4.09
617.467	4.07
617.801	3.98
618.135	3.98
618.469	3.93
618.803	3.88
619.137	3.88
619.471	3.85
619.805	3.82
620.139	3.81
620.472	3.82
620.806	3.81
621.14	3.82
621.473	3.83
621.807	3.81
622.141	3.8
622.474	3.77
622.808	3.75
623.141	3.76
623.474	3.77
623.808	3.76
624.141	3.77
624.474	3.76
624.807	3.81
625.141	3.81
625.474	3.8
625.807	3.8
626.14	3.8
626.473	3.8
626.806	3.83
627.138	3.84
627.471	3.81
627.804	3.83
628.137	3.82
628.469	3.8
628.802	3.77
629.135	3.74
629.467	3.72
629.8	3.69
630.132	3.69
630.465	3.66
630.797	3.64
631.129	3.62
631.461	3.62
631.794	3.6
632.126	3.59
632.458	3.62
632.79	3.64
633.122	3.65
633.454	3.65
633.786	3.63
634.118	3.59
634.45	3.58
634.781	3.52
635.113	3.48
635.445	3.46
635.777	3.47
636.108	3.49
636.44	3.5
636.771	3.48
637.103	3.45
637.434	3.41
637.765	3.42
638.097	3.37
638.428	3.32
638.759	3.27
639.09	3.21
639.422	3.15
639.753	3.13
640.084	3.11
640.415	3.09
640.746	3.04
641.077	3
641.407	2.97
641.738	2.98
642.069	2.99
642.4	2.97
642.73	2.98
643.061	2.93
643.392	2.9
643.722	2.93
644.053	2.9
644.383	2.89
644.713	2.83
645.044	2.82
645.374	2.81
645.704	2.8
646.034	2.85
646.365	2.87
646.695	2.84
647.025	2.81
647.355	2.79
647.685	2.8
648.015	2.88
648.344	2.92
648.674	2.93
649.004	2.95
649.334	2.96
649.663	2.96
649.993	2.98
650.323	2.99
650.652	2.98
650.982	2.95
651.311	2.91
651.64	2.91
651.97	2.9
652.299	2.91
652.628	2.93
652.958	2.91
653.287	2.92
653.616	2.91
653.945	2.93
654.274	2.89
654.603	2.86
654.932	2.81
655.261	2.8
655.589	2.84
655.918	2.9
656.247	2.98
656.576	3.02
656.904	3.05
657.233	3.1
657.561	3.12
657.89	3.16
658.218	3.19
658.547	3.22
658.875	3.24
659.203	3.25
659.532	3.24
659.86	3.21
660.188	3.17
660.516	3.18
660.844	3.15
661.172	3.15
661.5	3.15
661.828	3.13
662.156	3.09
662.484	3.03
662.811	2.93
663.139	2.83
663.467	2.72
663.794	2.66
664.122	2.56
664.45	2.48
664.777	2.4
665.104	2.37
665.432	2.31
665.759	2.28
666.086	2.24
666.414	2.24
666.741	2.23
667.068	2.22
667.395	2.2
667.722	2.2
668.049	2.19
668.376	2.18
668.703	2.2
669.03	2.23
669.357	2.2
669.683	2.2
670.01	2.22
670.337	2.25
670.663	2.23
670.99	2.17
671.317	2.21
671.643	2.26
671.969	2.25
672.296	2.26
672.622	2.24
672.948	2.22
673.275	2.17
673.601	2.12
673.927	2.1
674.253	2.08
674.579	2.09
674.905	2.11
675.231	2.13
675.557	2.15
675.883	2.13
676.209	2.2
676.534	2.22
676.86	2.25
677.186	2.3
677.511	2.35
677.837	2.38
678.162	2.38
678.488	2.38
678.813	2.42
679.139	2.47
679.464	2.52
679.789	2.54
680.114	2.58
680.44	2.66
680.765	2.7
681.09	2.7
681.415	2.65
681.74	2.65
682.065	2.64
682.39	2.57
682.714	2.53
683.039	2.46
683.364	2.44
683.689	2.39
684.013	2.36
684.338	2.38
684.662	2.42
684.987	2.43
685.311	2.44
685.636	2.43
685.96	2.36
686.284	2.27
686.608	2.25
686.933	2.19
687.257	2.13
687.581	2.08
687.905	2.09
688.229	2.15
688.553	2.11
688.877	2.05
689.201	2.06
689.524	2.05
689.848	2.07
690.172	2.06
690.496	2.09
690.819	2.07
691.143	1.98
691.466	1.93
691.79	1.89
692.113	1.84
692.436	1.77
692.76	1.75
693.083	1.76
693.406	1.7
693.729	1.72
694.053	1.76
694.376	1.76
694.699	1.82
695.022	1.87
695.344	1.99
695.667	2.18
695.99	2.31
696.313	2.43
696.636	2.55
696.958	2.62
697.281	2.64
697.604	2.61
697.926	2.64
698.249	2.67
698.571	2.66
698.893	2.64
699.216	2.59
699.538	2.58
699.86	2.55
700.182	2.53
700.504	2.51
700.827	2.47
701.149	2.48
701.471	2.4
701.793	2.3
702.114	2.18
702.436	1.99
702.758	1.82
703.08	1.66
703.401	1.44
703.723	1.24
704.045	1.19
704.366	1.12
704.688	1.07
705.009	0.99
705.331	0.97
705.652	0.99
705.973	1.1
706.294	1.13
706.616	1.2
706.937	1.22
707.258	1.22
707.579	1.27
707.9	1.26
708.221	1.33
708.542	1.39
708.863	1.48
709.183	1.52
709.504	1.52
709.825	1.58
710.145	1.58
710.466	1.58
710.787	1.53
711.107	1.54
711.427	1.53
711.748	1.51
712.068	1.51
712.388	1.55
712.709	1.55
713.029	1.59
713.349	1.57
713.669	1.62
713.989	1.73
714.309	1.74
714.629	1.72
714.949	1.63
715.269	1.61
715.589	1.57
715.908	1.58
716.228	1.55
716.548	1.53
716.867	1.59
717.187	1.65
717.506	1.65
717.826	1.7
718.145	1.81
718.465	1.96
718.784	2.11
719.103	2.13
719.422	2.18
719.741	2.21
720.061	2.3
720.38	2.38
720.699	2.3
721.018	2.37
721.336	2.52
721.655	2.67
721.974	2.83
722.293	3.01
722.612	3.16
722.93	3.35
723.249	3.5
723.567	3.67
723.886	3.81
724.204	3.97
724.523	4.14
724.841	4.23
725.159	4.33
725.477	4.34
725.796	4.5
726.114	4.61
726.432	4.81
726.75	4.94
727.068	5
727.386	5.18
727.704	5.28
728.022	5.37
728.339	5.47
728.657	5.59
728.975	5.67
729.292	5.75
729.61	5.84
729.928	5.91
730.245	5.93
730.562	6.02
730.88	6.03
731.197	6.11
731.514	6.18
731.832	6.26
732.149	6.48
732.466	6.61
732.783	6.76
733.1	6.84
733.417	6.97
733.734	7.2
734.051	7.37
734.368	7.55
734.684	7.74
735.001	7.77
735.318	7.84
735.634	8.07
735.951	8.25
736.268	8.39
736.584	8.54
736.9	8.73
737.217	8.81
737.533	8.99
737.849	9.23
738.166	9.41
738.482	9.54
738.798	9.59
739.114	9.63
739.43	9.71
739.746	9.83
740.062	9.93
740.378	9.94
740.693	10.09
741.009	10.21
741.325	10.27
741.641	10.57
741.956	10.76
742.272	10.79
742.587	10.88
742.903	11.01
743.218	11.21
743.533	11.29
743.849	11.47
744.164	11.6
744.479	11.68
744.794	11.69
745.109	11.72
745.424	11.79
745.739	11.94
746.054	12.12
746.369	12.16
746.684	12.2
746.999	12.28
747.313	12.22
747.628	12.19
747.943	12.21
748.257	12.25
748.572	12.25
748.886	12.32
749.201	12.37
749.515	12.41
749.829	12.38
750.144	12.56
750.458	12.64
750.772	12.68
751.086	12.67
751.4	12.8
751.714	12.9
752.028	12.96
752.342	12.99
752.656	13.03
752.97	13.09
753.284	13.2
753.597	13.32
753.911	13.52
754.225	13.73
754.538	13.93
754.852	14
755.165	14.12
755.478	14.13
755.792	14.18
756.105	14.22
756.418	14.31
756.731	14.31
757.045	14.42
757.358	14.57
757.671	14.66
757.984	14.78
758.297	14.96
758.609	15.15
758.922	15.31
759.235	15.31
759.548	15.35
759.86	15.3
760.173	15.15
760.486	14.91
760.798	14.64
761.111	14.41
761.423	14.35
761.735	14.28
762.048	14.23
762.36	14.18
762.672	14.19
762.984	14.23
763.296	14.31
763.608	14.45
763.92	14.48
764.232	14.54
764.544	14.58
764.856	14.6
765.168	14.63
765.48	14.69
765.791	14.84
766.103	14.99
766.414	15.15
766.726	15.43
767.037	15.83
767.349	16.23
767.66	16.72
767.972	17.11
768.283	17.71
768.594	18.22
768.905	18.62
769.216	19.07
769.527	19.49
769.838	19.84
770.149	19.95
770.46	20.2
770.771	20.45
771.082	20.77
771.393	20.96
771.703	21.21
772.014	21.28
772.324	21.43
772.635	21.49
772.945	21.68
773.256	21.9
773.566	22.01
773.877	22.2
774.187	22.2
774.497	22.18
774.807	21.88
775.117	21.84
775.427	21.96
775.737	22.11
776.047	22.15
776.357	22.11
776.667	22.22
776.977	22.34
777.287	22.48
777.596	22.45
777.906	22.35
778.216	22.36
778.525	22.59
778.835	22.72
779.144	22.9
779.453	22.91
779.763	22.86
780.072	22.83
780.381	23.03
780.69	23.4
781	23.75
781.309	23.95
781.618	24.1
781.927	24.35
782.235	24.41
782.544	24.55
782.853	24.65
783.162	24.6
783.471	24.9
783.779	25.12
784.088	25.25
784.396	25.63
784.705	25.56
785.013	25.54
785.322	25.37
785.63	25.29
785.938	25.31
786.246	25.31
786.554	25.45
786.863	25.3
787.171	25.16
787.479	25.35
787.787	25.36
788.094	25.39
788.402	25.1
788.71	25.02
789.018	24.63
789.326	24.62
789.633	25.15
789.941	25.2
790.248	25.18
790.556	25.3
790.863	25.48
791.171	25.72
791.478	25.93
791.785	26.27
792.092	26.54
792.399	26.86
792.707	27.29
793.014	27.47
793.321	27.52
793.628	27.32
793.934	26.86
794.241	26.87
794.548	26.94
794.855	27.14
795.161	27.16
795.468	27.44
795.775	27.55
796.081	27.28
796.388	27.25
796.694	27.26
797	27.15
797.307	27.1
797.613	27.19
797.919	27.05
798.225	26.85
798.531	26.8
798.837	26.91
799.143	26.74
799.449	26.96
799.755	27.37
800.061	27.87
800.367	28.23
800.672	28.44
800.978	28.52
801.284	28.84
801.589	29.08
801.895	29.38
802.2	29.85
802.506	29.91
802.811	29.62
803.116	29.38
803.421	29.59
803.727	29.59
804.032	29.65
804.337	29.84
804.642	30.21
804.947	30.37
805.252	30.28
805.556	30.41
805.861	30.49
806.166	30.36
806.471	30.41
806.775	30.6
807.08	30.73
807.384	31.3
807.689	31.16
807.993	31.17
808.298	31.16
808.602	30.82
808.906	30.99
809.211	31.26
809.515	31.54
809.819	31.35
810.123	31.42
810.427	31.79
810.731	31.82
811.035	31.75
811.338	32.11
811.642	32.21
811.946	32.49
812.25	32.53
812.553	32.49
812.857	32.38
813.16	32.3
813.464	32.74
813.767	32.49
814.07	32.44
814.374	32.59
814.677	32.37
814.98	32.3
815.283	32.35
815.586	32.48
815.889	32.58
816.192	32.9
816.495	32.52
816.798	31.89
817.101	31.66
817.404	31.22
817.706	30.61
818.009	30.1
818.312	29.05
818.614	27.61
818.917	25.95
819.219	23.89
819.521	21.62
819.824	19.68
820.126	18.21
820.428	17.12
820.73	16.33
821.032	15.76
821.334	15.38
821.636	15.07
821.938	14.86
822.24	14.64
822.542	14.51
822.844	14.55
823.145	14.51
823.447	14.36
823.749	14.28
824.05	14.05
824.352	13.87
824.653	13.82
824.955	13.76
825.256	13.8
825.557	13.87
825.858	14.17
826.16	14.46
826.461	14.83
826.762	15.33
827.063	15.78
827.364	16.35
827.665	16.84
827.965	17.31
828.266	17.78
828.567	18.27
828.868	18.55
829.168	18.74
829.469	19.07
829.769	19.5
830.07	19.96
830.37	20.48
830.67	21.08
830.971	21.69
831.271	22.2
831.571	22.55
831.871	22.97
832.171	23.06
832.471	23.23
832.771	23.32
833.071	23.53
833.371	23.85
833.671	23.96
833.971	24.18
834.27	24.28
834.57	24.05
834.869	23.98
835.169	24.06
835.468	23.93
835.768	23.66
836.067	23.73
836.367	24
836.666	24.54
836.965	25.02
837.264	25.51
837.563	26.45
837.862	27.28
838.161	28.34
838.46	29.53
838.759	30.33
839.058	31.4
839.356	32.39
839.655	33.39
839.954	34.2
840.252	34.8
840.551	35.36
840.849	35.96
841.148	36.67
841.446	37.32
841.744	38.45
842.043	39.53
842.341	39.7
842.639	39.4
842.937	39.44
843.235	40.19
843.533	40.8
843.831	41.51
844.129	42.5
844.427	43.11
844.724	44.35
845.022	45.78
845.32	45.91
845.617	46.44
845.915	47.31
846.212	49.04
846.51	49.91
846.807	50.67
847.104	51.71
847.402	52.47
847.699	52.52
847.996	53.05
848.293	52.81
848.59	53.34
848.887	53.72
849.184	53.75
849.481	53.32
849.778	53.35
850.074	53.31
850.371	53.86
850.668	54.64
850.964	54.03
851.261	54.34
851.557	55.82
851.854	55.97
852.15	56.16
852.446	54.89
852.743	54.85
853.039	54.67
853.335	54.99
853.631	55.33
853.927	56.01
854.223	55.27
854.519	54.86
854.815	54.66
855.111	54.58
855.406	54.95
855.702	55.43
855.998	55.19
856.293	55.44
856.589	55.37
856.884	55.14
857.18	56.15
857.475	56.48
857.77	56.31
858.066	56.45
858.361	55.49
858.656	55.62
858.951	55.06
859.246	54.66
859.541	54.05
859.836	53.04
860.131	52.68
860.426	52.96
860.72	54.05
861.015	55.15
861.31	55.69
861.604	55.4
861.899	55.17
862.193	54.84
862.487	54.83
862.782	55.31
863.076	55.12
863.37	54.02
863.664	53.34
863.959	53.82
864.253	54.46
864.547	55.15
864.841	55.02
865.135	55.61
865.428	55.48
865.722	55.67
866.016	55.83
866.31	56.09
866.603	55.58
866.897	54.44
867.19	53.65
867.484	52.94
867.777	53.5
868.07	53.96
868.364	54.08
868.657	53.59
868.95	53.34
869.243	52.93
869.536	52.51
869.829	52.84
870.122	51.7
870.415	52.22
870.708	51.88
871	52.15
871.293	51.88
871.586	52.31
871.878	51.86
872.171	52.5
872.463	51.55
872.756	51.5
873.048	52.21
873.341	52.16
873.633	52.68
873.925	52.29
874.217	51.97
874.509	52.67
874.801	53.27
875.093	53
875.385	53.91
875.677	55.21
875.969	54.18
