Data from pcis_c_h2_p2_Reflection_4.txt Node
Date: Wed Jul 12 17:39:27 ART 2017
User: rodoncho
Spectrometer: USB2E3644
Trigger mode: 4
Integration Time (sec): 6.000000E-2
Scans to average: 10
Electric dark correction enabled: true
Nonlinearity correction enabled: false
Boxcar width: 10
XAxis mode: Wavelengths
Number of Pixels in Spectrum: 2048
>>>>>Begin Spectral Data<<<<<
178.315	-112.2
178.696	1300
179.076	547.17
179.457	197.4
179.838	-1280
180.218	-6.15
180.599	-2.58
180.979	-350
181.36	220.44
181.74	259.57
182.121	-101.64
182.501	129.37
182.881	217.9
183.262	1120
183.642	-177.07
184.022	-45.77
184.402	0.86
184.783	29.23
185.163	29.87
185.543	42.42
185.923	49.12
186.303	56.65
186.683	63.41
187.063	74.35
187.443	84.51
187.823	85.31
188.203	84.75
188.583	92.04
188.963	88.84
189.343	92.45
189.723	98.56
190.102	105.48
190.482	108.04
190.862	109.25
191.242	109.08
191.621	112.98
192.001	111.05
192.38	109.6
192.76	111.98
193.14	111.98
193.519	111.47
193.898	112.66
194.278	111.25
194.657	115.68
195.037	115.23
195.416	111.05
195.795	111.33
196.175	110.48
196.554	104.2
196.933	102.85
197.312	101.95
197.692	98.35
198.071	96.69
198.45	97.83
198.829	97.88
199.208	98.94
199.587	99.36
199.966	99.57
200.345	99.66
200.724	99.86
201.103	101.98
201.482	102.57
201.86	101.89
202.239	102.25
202.618	100.79
202.997	99.32
203.375	99.86
203.754	98.78
204.133	99.24
204.511	100.59
204.89	101.3
205.269	100.94
205.647	100.93
206.026	100.13
206.404	99
206.782	99.09
207.161	98.35
207.539	97.38
207.918	98.23
208.296	98.98
208.674	99.96
209.052	99.4
209.431	98.54
209.809	98.47
210.187	98.93
210.565	99.4
210.943	99.64
211.321	98.86
211.699	100.28
212.077	100.04
212.455	101.53
212.833	101.91
213.211	102.2
213.589	102.26
213.967	103.5
214.345	105.2
214.722	106.02
215.1	107.32
215.478	107.99
215.855	107.27
216.233	106.01
216.611	103.79
216.988	102.93
217.366	102.53
217.743	101.86
218.121	101.26
218.498	99.39
218.876	98.62
219.253	98.06
219.631	98.85
220.008	100.31
220.385	100.67
220.762	100.75
221.14	101.53
221.517	101.67
221.894	100.39
222.271	99.61
222.648	99.11
223.025	98.38
223.402	97.8
223.78	98.17
224.157	98.87
224.533	99.16
224.91	99.38
225.287	100.69
225.664	102.57
226.041	103.7
226.418	105.57
226.795	106.12
227.171	107.9
227.548	107.82
227.925	106.68
228.301	106.14
228.678	106.75
229.055	107.94
229.431	109.47
229.808	111.45
230.184	110.43
230.561	110.08
230.937	110.71
231.313	111.62
231.69	112.43
232.066	112.12
232.442	112.18
232.819	112.31
233.195	111.38
233.571	110.78
233.947	110.93
234.323	111.56
234.699	113.58
235.075	113.94
235.451	113.39
235.827	113.34
236.203	114.68
236.579	114.84
236.955	113.78
237.331	113.45
237.707	114.08
238.083	118.05
238.459	122.11
238.834	125.31
239.21	128.33
239.586	131.78
239.961	136.3
240.337	140.71
240.713	144.03
241.088	148.38
241.464	150.35
241.839	151.93
242.215	153.98
242.59	159.16
242.965	173.24
243.341	200.42
243.716	242.41
244.091	291.86
244.467	345.15
244.842	422.12
245.217	511.2
245.592	563.23
245.967	566.94
246.343	513.16
246.718	474.02
247.093	470.4
247.468	481.77
247.843	478.16
248.218	528.65
248.593	623.79
248.967	746.68
249.342	857.61
249.717	886.58
250.092	880.93
250.467	774.55
250.841	600.66
251.216	421.22
251.591	328.04
251.965	274.55
252.34	246.59
252.714	230.55
253.089	215.86
253.463	209.83
253.838	215.2
254.212	224.21
254.587	237.6
254.961	258.53
255.335	288.72
255.71	380.87
256.084	658.99
256.458	3262.98
256.832	-1286.51
257.206	-622.42
257.581	-452.22
257.955	-396.95
258.329	-344.02
258.703	-299.83
259.077	-268.17
259.451	-245.68
259.825	-217.78
260.199	-205.46
260.572	-191.83
260.946	-175.24
261.32	-166.93
261.694	-157.83
262.068	-151.97
262.441	-151.13
262.815	-151.13
263.189	-151.35
263.562	-160.34
263.936	-190.71
264.309	-249.4
264.683	-337.44
265.056	-417.53
265.43	-456.83
265.803	-418.05
266.176	-395.29
266.55	-394.81
266.923	-375.33
267.296	-349.59
267.67	-319.74
268.043	-275.81
268.416	-249.76
268.789	-215.03
269.162	-185.59
269.535	-172.17
269.908	-161.68
270.281	-153.17
270.654	-149.74
271.027	-150.34
271.4	-152.89
271.773	-154.43
272.146	-151.49
272.519	-144.41
272.891	-138.65
273.264	-137.96
273.637	-138.75
274.01	-135.48
274.382	-131.62
274.755	-130.1
275.127	-128.17
275.5	-128.31
275.872	-129.33
276.245	-128.44
276.617	-132.64
276.99	-140.69
277.362	-141.5
277.734	-144.15
278.107	-144.32
278.479	-138.27
278.851	-130.63
279.223	-122.26
279.596	-116.28
279.968	-113.02
280.34	-110.4
280.712	-107.07
281.084	-99.23
281.456	-89.47
281.828	-82.71
282.2	-76.84
282.572	-72.33
282.944	-69.74
283.315	-69.01
283.687	-67.93
284.059	-67.53
284.431	-65.68
284.802	-63.93
285.174	-62.2
285.546	-60.58
285.917	-58.92
286.289	-56.8
286.66	-55.3
287.032	-55.16
287.403	-54.22
287.775	-53.12
288.146	-52.68
288.518	-52.25
288.889	-51.8
289.26	-53.56
289.632	-55.18
290.003	-56.99
290.374	-58.76
290.745	-58.75
291.116	-56.9
291.487	-54.79
291.858	-52.83
292.229	-52.13
292.6	-50.05
292.971	-48.64
293.342	-46.21
293.713	-43.84
294.084	-42.72
294.455	-42.62
294.826	-41.71
295.196	-42.25
295.567	-41.67
295.938	-41.09
296.308	-40.97
296.679	-41.08
297.05	-40.26
297.42	-39.71
297.791	-38.35
298.161	-36.82
298.532	-36.02
298.902	-35.95
299.272	-35.95
299.643	-35.46
300.013	-34.84
300.383	-34.68
300.754	-34.85
301.124	-35.32
301.494	-35.25
301.864	-35.43
302.234	-35.6
302.604	-36.14
302.974	-35.46
303.344	-35.74
303.714	-35.81
304.084	-34.97
304.454	-34.52
304.824	-33.73
305.194	-32.94
305.563	-32.78
305.933	-31.42
306.303	-29.55
306.673	-27.81
307.042	-26.24
307.412	-24.78
307.781	-23.38
308.151	-22.44
308.521	-21.95
308.89	-21.32
309.259	-21.32
309.629	-21.2
309.998	-20.8
310.368	-20.42
310.737	-20.06
311.106	-19.49
311.475	-18.77
311.845	-18.8
312.214	-18.32
312.583	-17.99
312.952	-17.53
313.321	-17.04
313.69	-17.32
314.059	-18.1
314.428	-18.63
314.797	-19.43
315.166	-20.8
315.535	-21.67
315.904	-22.14
316.272	-22.38
316.641	-22.92
317.01	-22.87
317.379	-22.89
317.747	-22.85
318.116	-22.44
318.484	-22.3
318.853	-22.04
319.221	-21.96
319.59	-21.52
319.958	-21.25
320.327	-20.49
320.695	-19.64
321.063	-19.42
321.432	-18.81
321.8	-18.27
322.168	-17.31
322.536	-16.36
322.905	-15.14
323.273	-14.5
323.641	-14.22
324.009	-14.26
324.377	-13.78
324.745	-13.31
325.113	-12.92
325.481	-12.4
325.849	-11.76
326.216	-11.09
326.584	-10.47
326.952	-9.94
327.32	-9.38
327.687	-8.92
328.055	-8.94
328.423	-9.04
328.79	-8.7
329.158	-8.5
329.525	-8.04
329.893	-7.99
330.26	-8.04
330.628	-8.19
330.995	-7.95
331.362	-7.44
331.73	-6.43
332.097	-5.86
332.464	-5.39
332.831	-4.98
333.199	-4.5
333.566	-4.33
333.933	-4.46
334.3	-4.77
334.667	-4.85
335.034	-4.84
335.401	-4.76
335.768	-4.62
336.135	-4.4
336.502	-4.26
336.868	-4.09
337.235	-3.95
337.602	-3.61
337.969	-3.08
338.335	-2.66
338.702	-2.43
339.069	-2.2
339.435	-2.13
339.802	-1.92
340.168	-1.77
340.535	-1.57
340.901	-1.58
341.267	-1.48
341.634	-1.1
342	-0.63
342.366	-0.34
342.733	-0.14
343.099	0
343.465	0.32
343.831	0.58
344.197	0.73
344.563	0.83
344.929	1.08
345.295	1.21
345.661	1.31
346.027	1.49
346.393	1.62
346.759	1.58
347.125	1.7
347.491	1.65
347.856	1.58
348.222	1.53
348.588	1.55
348.953	1.58
349.319	1.73
349.684	1.82
350.05	1.9
350.415	2.12
350.781	2.3
351.146	2.36
351.512	2.38
351.877	2.47
352.242	2.47
352.608	2.42
352.973	2.46
353.338	2.38
353.703	2.48
354.068	2.64
354.433	2.94
354.798	3.13
355.164	3.27
355.528	3.31
355.893	3.43
356.258	3.57
356.623	3.74
356.988	3.76
357.353	3.93
357.718	4.09
358.082	4.17
358.447	4.17
358.812	4.28
359.176	4.38
359.541	4.56
359.905	4.85
360.27	5.04
360.634	5.18
360.999	5.4
361.363	5.56
361.728	5.64
362.092	5.59
362.456	5.52
362.821	5.52
363.185	5.7
363.549	5.89
363.913	6.02
364.277	6.12
364.641	6.19
365.005	6.2
365.369	6.25
365.733	6.31
366.097	6.51
366.461	6.61
366.825	6.67
367.189	6.78
367.553	6.85
367.916	6.89
368.28	6.95
368.644	7.06
369.007	7.11
369.371	7.17
369.734	7.28
370.098	7.5
370.461	7.68
370.825	7.73
371.188	7.84
371.552	8
371.915	8.16
372.278	8.38
372.642	8.55
373.005	8.65
373.368	8.76
373.731	8.8
374.094	8.86
374.457	8.96
374.82	8.99
375.183	9.03
375.546	9.16
375.909	9.28
376.272	9.32
376.635	9.29
376.998	9.36
377.361	9.44
377.723	9.48
378.086	9.54
378.449	9.66
378.811	9.73
379.174	9.79
379.537	9.84
379.899	9.92
380.262	9.99
380.624	10.08
380.987	10.1
381.349	10.19
381.711	10.28
382.074	10.35
382.436	10.43
382.798	10.49
383.16	10.44
383.522	10.49
383.884	10.56
384.247	10.7
384.609	10.81
384.971	10.91
385.333	11
385.695	11.03
386.056	11.04
386.418	11
386.78	11.02
387.142	10.99
387.504	10.98
387.865	10.93
388.227	10.87
388.589	10.89
388.95	10.84
389.312	10.81
389.673	10.82
390.035	10.76
390.396	10.76
390.758	10.81
391.119	10.79
391.48	10.75
391.842	10.71
392.203	10.66
392.564	10.64
392.925	10.58
393.286	10.58
393.648	10.59
394.009	10.62
394.37	10.59
394.731	10.57
395.092	10.55
395.452	10.6
395.813	10.67
396.174	10.68
396.535	10.7
396.896	10.75
397.257	10.76
397.617	10.8
397.978	10.83
398.338	10.9
398.699	10.94
399.06	10.99
399.42	10.96
399.781	10.96
400.141	10.95
400.501	10.94
400.862	10.95
401.222	10.96
401.582	10.95
401.943	10.92
402.303	10.94
402.663	10.96
403.023	10.95
403.383	10.94
403.743	10.96
404.103	11
404.463	11
404.823	11.02
405.183	11
405.543	11.01
405.903	10.93
406.262	10.96
406.622	10.95
406.982	10.97
407.342	11
407.701	10.99
408.061	11
408.42	10.97
408.78	10.94
409.139	10.98
409.499	11.01
409.858	11.05
410.217	11.09
410.577	11.07
410.936	11.04
411.295	11.01
411.655	10.95
412.014	10.93
412.373	10.88
412.732	10.85
413.091	10.79
413.45	10.74
413.809	10.68
414.168	10.6
414.527	10.53
414.886	10.44
415.245	10.38
415.603	10.3
415.962	10.2
416.321	10.13
416.679	10.04
417.038	9.98
417.397	9.88
417.755	9.77
418.114	9.71
418.472	9.65
418.831	9.62
419.189	9.57
419.547	9.52
419.906	9.47
420.264	9.41
420.622	9.37
420.981	9.34
421.339	9.28
421.697	9.26
422.055	9.24
422.413	9.22
422.771	9.21
423.129	9.21
423.487	9.24
423.845	9.25
424.203	9.26
424.56	9.26
424.918	9.27
425.276	9.31
425.634	9.33
425.991	9.34
426.349	9.35
426.707	9.38
427.064	9.4
427.422	9.43
427.779	9.46
428.137	9.52
428.494	9.59
428.851	9.63
429.209	9.65
429.566	9.66
429.923	9.71
430.28	9.71
430.637	9.71
430.995	9.68
431.352	9.67
431.709	9.69
432.066	9.71
432.423	9.72
432.78	9.73
433.137	9.74
433.493	9.77
433.85	9.78
434.207	9.75
434.564	9.73
434.92	9.73
435.277	9.76
435.634	9.73
435.99	9.71
436.347	9.7
436.703	9.7
437.06	9.7
437.416	9.67
437.773	9.67
438.129	9.66
438.485	9.67
438.841	9.67
439.198	9.67
439.554	9.66
439.91	9.66
440.266	9.64
440.622	9.64
440.978	9.61
441.334	9.57
441.69	9.57
442.046	9.55
442.402	9.5
442.758	9.43
443.113	9.4
443.469	9.36
443.825	9.33
444.181	9.32
444.536	9.32
444.892	9.31
445.247	9.31
445.603	9.33
445.958	9.32
446.314	9.31
446.669	9.29
447.025	9.28
447.38	9.25
447.735	9.25
448.09	9.23
448.446	9.23
448.801	9.23
449.156	9.23
449.511	9.25
449.866	9.28
450.221	9.31
450.576	9.35
450.931	9.37
451.286	9.41
451.641	9.41
451.995	9.41
452.35	9.44
452.705	9.44
453.06	9.44
453.414	9.46
453.769	9.47
454.123	9.47
454.478	9.47
454.832	9.5
455.187	9.47
455.541	9.46
455.896	9.43
456.25	9.4
456.604	9.38
456.958	9.36
457.313	9.36
457.667	9.39
458.021	9.4
458.375	9.44
458.729	9.48
459.083	9.51
459.437	9.55
459.791	9.56
460.145	9.59
460.499	9.62
460.852	9.64
461.206	9.66
461.56	9.71
461.914	9.74
462.267	9.75
462.621	9.81
462.974	9.87
463.328	9.98
463.681	10.07
464.035	10.16
464.388	10.26
464.742	10.35
465.095	10.41
465.448	10.46
465.801	10.53
466.155	10.56
466.508	10.6
466.861	10.62
467.214	10.64
467.567	10.67
467.92	10.7
468.273	10.73
468.626	10.76
468.979	10.76
469.332	10.77
469.684	10.82
470.037	10.85
470.39	10.87
470.743	10.89
471.095	10.92
471.448	10.96
471.8	10.97
472.153	10.97
472.505	10.97
472.858	10.99
473.21	10.97
473.562	10.96
473.915	10.94
474.267	10.93
474.619	10.91
474.971	10.88
475.324	10.83
475.676	10.79
476.028	10.75
476.38	10.74
476.732	10.73
477.084	10.68
477.436	10.65
477.787	10.61
478.139	10.55
478.491	10.48
478.843	10.38
479.195	10.31
479.546	10.19
479.898	10.05
480.249	9.89
480.601	9.77
480.952	9.69
481.304	9.62
481.655	9.57
482.007	9.55
482.358	9.53
482.709	9.51
483.061	9.5
483.412	9.48
483.763	9.46
484.114	9.44
484.465	9.43
484.816	9.4
485.167	9.39
485.518	9.4
485.869	9.41
486.22	9.43
486.571	9.45
486.922	9.47
487.272	9.51
487.623	9.57
487.974	9.65
488.324	9.71
488.675	9.79
489.025	9.86
489.376	9.91
489.726	9.97
490.077	10.04
490.427	10.1
490.778	10.18
491.128	10.26
491.478	10.37
491.828	10.49
492.179	10.61
492.529	10.74
492.879	10.85
493.229	10.95
493.579	11.04
493.929	11.13
494.279	11.23
494.629	11.35
494.979	11.5
495.328	11.67
495.678	11.87
496.028	12.06
496.378	12.22
496.727	12.38
497.077	12.54
497.426	12.7
497.776	12.82
498.125	12.97
498.475	13.11
498.824	13.23
499.174	13.34
499.523	13.48
499.872	13.61
500.221	13.74
500.571	13.9
500.92	14.04
501.269	14.17
501.618	14.33
501.967	14.47
502.316	14.62
502.665	14.76
503.014	14.89
503.363	15.02
503.711	15.14
504.06	15.24
504.409	15.31
504.758	15.37
505.106	15.46
505.455	15.53
505.803	15.6
506.152	15.69
506.5	15.77
506.849	15.82
507.197	15.9
507.546	15.99
507.894	16.06
508.242	16.15
508.59	16.23
508.939	16.29
509.287	16.35
509.635	16.41
509.983	16.44
510.331	16.5
510.679	16.55
511.027	16.6
511.375	16.66
511.723	16.73
512.07	16.83
512.418	16.9
512.766	16.97
513.114	17.04
513.461	17.11
513.809	17.15
514.156	17.22
514.504	17.27
514.851	17.29
515.199	17.3
515.546	17.31
515.893	17.37
516.241	17.42
516.588	17.46
516.935	17.48
517.282	17.53
517.63	17.58
517.977	17.62
518.324	17.67
518.671	17.71
519.018	17.74
519.365	17.74
519.711	17.77
520.058	17.8
520.405	17.83
520.752	17.84
521.099	17.89
521.445	17.92
521.792	17.94
522.138	17.97
522.485	18.03
522.832	18.11
523.178	18.14
523.524	18.2
523.871	18.25
524.217	18.28
524.563	18.28
524.91	18.24
525.256	18.24
525.602	18.22
525.948	18.22
526.294	18.24
526.64	18.25
526.986	18.28
527.332	18.32
527.678	18.33
528.024	18.36
528.37	18.38
528.716	18.39
529.061	18.42
529.407	18.44
529.753	18.45
530.098	18.44
530.444	18.44
530.789	18.44
531.135	18.46
531.48	18.5
531.826	18.55
532.171	18.62
532.516	18.68
532.862	18.74
533.207	18.79
533.552	18.83
533.897	18.86
534.242	18.86
534.587	18.87
534.932	18.9
535.277	18.91
535.622	18.92
535.967	18.94
536.312	18.96
536.657	19.01
537.001	19.04
537.346	19.07
537.691	19.1
538.035	19.09
538.38	19.07
538.724	19.04
539.069	19.02
539.413	19.01
539.758	19.03
540.102	19.05
540.446	19.08
540.791	19.11
541.135	19.14
541.479	19.17
541.823	19.17
542.167	19.17
542.512	19.18
542.856	19.18
543.2	19.16
543.543	19.15
543.887	19.15
544.231	19.18
544.575	19.22
544.919	19.26
545.262	19.31
545.606	19.37
545.95	19.41
546.293	19.45
546.637	19.47
546.98	19.5
547.324	19.51
547.667	19.51
548.011	19.49
548.354	19.49
548.697	19.48
549.04	19.48
549.384	19.47
549.727	19.49
550.07	19.51
550.413	19.54
550.756	19.56
551.099	19.6
551.442	19.62
551.785	19.64
552.128	19.61
552.47	19.62
552.813	19.61
553.156	19.59
553.499	19.6
553.841	19.6
554.184	19.59
554.526	19.55
554.869	19.52
555.211	19.53
555.554	19.52
555.896	19.52
556.238	19.52
556.581	19.52
556.923	19.53
557.265	19.53
557.607	19.52
557.949	19.52
558.291	19.46
558.633	19.44
558.975	19.41
559.317	19.4
559.659	19.4
560.001	19.37
560.343	19.34
560.685	19.33
561.026	19.3
561.368	19.28
561.71	19.27
562.051	19.29
562.393	19.27
562.734	19.22
563.076	19.2
563.417	19.19
563.759	19.17
564.1	19.16
564.441	19.15
564.782	19.12
565.124	19.12
565.465	19.11
565.806	19.1
566.147	19.07
566.488	19.07
566.829	19.01
567.17	19.02
567.511	19.03
567.851	18.99
568.192	19
568.533	18.98
568.874	18.96
569.214	18.95
569.555	18.94
569.895	18.93
570.236	18.9
570.576	18.87
570.917	18.86
571.257	18.83
571.598	18.8
571.938	18.81
572.278	18.78
572.618	18.76
572.959	18.74
573.299	18.71
573.639	18.68
573.979	18.67
574.319	18.63
574.659	18.58
574.999	18.61
575.339	18.57
575.678	18.55
576.018	18.53
576.358	18.52
576.698	18.46
577.037	18.45
577.377	18.43
577.716	18.41
578.056	18.38
578.395	18.33
578.735	18.34
579.074	18.25
579.413	18.21
579.753	18.17
580.092	18.09
580.431	18.1
580.77	18.09
581.109	18.08
581.448	18.09
581.787	18.08
582.126	17.96
582.465	17.91
582.804	17.89
583.143	17.86
583.482	17.8
583.82	17.78
584.159	17.76
584.498	17.69
584.836	17.67
585.175	17.63
585.514	17.63
585.852	17.58
586.19	17.6
586.529	17.61
586.867	17.6
587.205	17.61
587.544	17.62
587.882	17.59
588.22	17.57
588.558	17.53
588.896	17.49
589.234	17.5
589.572	17.48
589.91	17.43
590.248	17.4
590.586	17.4
590.924	17.36
591.262	17.35
591.599	17.34
591.937	17.32
592.275	17.3
592.612	17.26
592.95	17.26
593.287	17.26
593.625	17.25
593.962	17.26
594.299	17.26
594.637	17.21
594.974	17.19
595.311	17.18
595.648	17.16
595.985	17.16
596.322	17.14
596.659	17.15
596.996	17.15
597.333	17.13
597.67	17.11
598.007	17.09
598.344	17.06
598.681	17.08
599.017	17.04
599.354	16.98
599.691	16.95
600.027	16.91
600.364	16.88
600.7	16.83
601.037	16.81
601.373	16.81
601.71	16.82
602.046	16.82
602.382	16.8
602.718	16.78
603.054	16.78
603.391	16.76
603.727	16.75
604.063	16.72
604.399	16.71
604.735	16.68
605.071	16.67
605.406	16.7
605.742	16.69
606.078	16.67
606.414	16.69
606.749	16.7
607.085	16.67
607.421	16.63
607.756	16.62
608.092	16.58
608.427	16.54
608.762	16.48
609.098	16.37
609.433	16.3
609.768	16.25
610.104	16.18
610.439	16.18
610.774	16.14
611.109	16.09
611.444	16.04
611.779	16.01
612.114	15.98
612.449	15.89
612.784	15.81
613.118	15.77
613.453	15.7
613.788	15.6
614.123	15.56
614.457	15.47
614.792	15.38
615.126	15.29
615.461	15.18
615.795	15.07
616.13	15.11
616.464	15.07
616.798	15.07
617.132	15.09
617.467	15.03
617.801	14.97
618.135	14.98
618.469	14.95
618.803	14.9
619.137	14.85
619.471	14.8
619.805	14.76
620.139	14.74
620.472	14.71
620.806	14.69
621.14	14.59
621.473	14.57
621.807	14.56
622.141	14.51
622.474	14.48
622.808	14.52
623.141	14.51
623.474	14.57
623.808	14.56
624.141	14.51
624.474	14.51
624.807	14.5
625.141	14.52
625.474	14.49
625.807	14.51
626.14	14.5
626.473	14.5
626.806	14.48
627.138	14.45
627.471	14.44
627.804	14.43
628.137	14.49
628.469	14.46
628.802	14.43
629.135	14.4
629.467	14.4
629.8	14.33
630.132	14.29
630.465	14.22
630.797	14.17
631.129	14.16
631.461	14.11
631.794	14.09
632.126	13.99
632.458	14
632.79	13.96
633.122	13.89
633.454	13.91
633.786	13.91
634.118	13.86
634.45	13.81
634.781	13.78
635.113	13.69
635.445	13.66
635.777	13.64
636.108	13.66
636.44	13.6
636.771	13.59
637.103	13.57
637.434	13.54
637.765	13.51
638.097	13.47
638.428	13.41
638.759	13.39
639.09	13.33
639.422	13.27
639.753	13.24
640.084	13.25
640.415	13.21
640.746	13.12
641.077	13.12
641.407	13.1
641.738	13.08
642.069	13.09
642.4	13.06
642.73	13.02
643.061	13
643.392	13.01
643.722	13
644.053	12.94
644.383	12.87
644.713	12.78
645.044	12.67
645.374	12.67
645.704	12.61
646.034	12.68
646.365	12.65
646.695	12.62
647.025	12.64
647.355	12.61
647.685	12.66
648.015	12.69
648.344	12.76
648.674	12.74
649.004	12.75
649.334	12.79
649.663	12.85
649.993	12.88
650.323	12.88
650.652	12.84
650.982	12.85
651.311	12.86
651.64	12.87
651.97	12.92
652.299	12.92
652.628	12.92
652.958	12.87
653.287	12.88
653.616	12.86
653.945	12.79
654.274	12.72
654.603	12.67
654.932	12.61
655.261	12.52
655.589	12.56
655.918	12.58
656.247	12.57
656.576	12.61
656.904	12.65
657.233	12.71
657.561	12.78
657.89	12.82
658.218	12.82
658.547	12.84
658.875	12.82
659.203	12.82
659.532	12.84
659.86	12.82
660.188	12.81
660.516	12.81
660.844	12.8
661.172	12.82
661.5	12.82
661.828	12.74
662.156	12.69
662.484	12.65
662.811	12.58
663.139	12.57
663.467	12.46
663.794	12.33
664.122	12.21
664.45	12.08
664.777	12.04
665.104	12
665.432	11.92
665.759	11.86
666.086	11.83
666.414	11.8
666.741	11.77
667.068	11.75
667.395	11.73
667.722	11.71
668.049	11.7
668.376	11.67
668.703	11.71
669.03	11.77
669.357	11.71
669.683	11.7
670.01	11.69
670.337	11.74
670.663	11.72
670.99	11.7
671.317	11.71
671.643	11.65
671.969	11.63
672.296	11.65
672.622	11.68
672.948	11.64
673.275	11.55
673.601	11.55
673.927	11.5
674.253	11.54
674.579	11.55
674.905	11.51
675.231	11.53
675.557	11.59
675.883	11.62
676.209	11.66
676.534	11.65
676.86	11.64
677.186	11.66
677.511	11.71
677.837	11.73
678.162	11.76
678.488	11.81
678.813	11.84
679.139	11.89
679.464	11.98
679.789	12.03
680.114	12.13
680.44	12.15
680.765	12.13
681.09	12.09
681.415	12.07
681.74	12.07
682.065	12.07
682.39	11.99
682.714	11.93
683.039	11.93
683.364	11.93
683.689	11.88
684.013	11.77
684.338	11.75
684.662	11.7
684.987	11.71
685.311	11.68
685.636	11.67
685.96	11.63
686.284	11.45
686.608	11.4
686.933	11.36
687.257	11.34
687.581	11.4
687.905	11.43
688.229	11.47
688.553	11.46
688.877	11.44
689.201	11.44
689.524	11.38
689.848	11.28
690.172	11.26
690.496	11.3
690.819	11.29
691.143	11.22
691.466	11.22
691.79	11.18
692.113	11.16
692.436	11.05
692.76	11.04
693.083	11.14
693.406	11.1
693.729	11.02
694.053	11.04
694.376	10.96
694.699	10.93
695.022	11
695.344	11.01
695.667	11.17
695.99	11.32
696.313	11.5
696.636	11.7
696.958	11.82
697.281	11.83
697.604	11.89
697.926	12
698.249	12.03
698.571	12.04
698.893	11.99
699.216	11.93
699.538	11.86
699.86	11.81
700.182	11.76
700.504	11.77
700.827	11.8
701.149	11.85
701.471	11.79
701.793	11.71
702.114	11.66
702.436	11.47
702.758	11.26
703.08	11.06
703.401	10.75
703.723	10.5
704.045	10.37
704.366	10.27
704.688	10.18
705.009	10.1
705.331	10.09
705.652	10.14
705.973	10.27
706.294	10.31
706.616	10.36
706.937	10.43
707.258	10.48
707.579	10.44
707.9	10.4
708.221	10.52
708.542	10.52
708.863	10.67
709.183	10.69
709.504	10.69
709.825	10.77
710.145	10.91
710.466	10.98
710.787	10.99
711.107	10.97
711.427	10.91
711.748	10.91
712.068	10.92
712.388	10.97
712.709	11.06
713.029	11.14
713.349	11.16
713.669	11.15
713.989	11.21
714.309	11.19
714.629	11.22
714.949	11.17
715.269	11.25
715.589	11.26
715.908	11.31
716.228	11.4
716.548	11.41
716.867	11.41
717.187	11.43
717.506	11.51
717.826	11.6
718.145	11.6
718.465	11.68
718.784	11.81
719.103	11.75
719.422	11.8
719.741	11.87
720.061	11.95
720.38	12.09
720.699	12.1
721.018	12.16
721.336	12.17
721.655	12.16
721.974	12.12
722.293	12.21
722.612	12.2
722.93	12.29
723.249	12.5
723.567	12.78
723.886	13.01
724.204	13.18
724.523	13.37
724.841	13.66
725.159	13.73
725.477	13.76
725.796	14.02
726.114	14.1
726.432	14.23
726.75	14.33
727.068	14.4
727.386	14.55
727.704	14.75
728.022	14.91
728.339	15.05
728.657	15.27
728.975	15.36
729.292	15.63
729.61	15.7
729.928	15.69
730.245	15.59
730.562	15.6
730.88	15.74
731.197	15.76
731.514	15.84
731.832	16.02
732.149	16.06
732.466	16.15
732.783	16.26
733.1	16.45
733.417	16.6
733.734	16.79
734.051	16.95
734.368	16.96
734.684	17.13
735.001	17.31
735.318	17.39
735.634	17.48
735.951	17.59
736.268	17.83
736.584	18.08
736.9	18.41
737.217	18.49
737.533	18.54
737.849	18.75
738.166	18.95
738.482	19.19
738.798	19.51
739.114	19.76
739.43	19.84
739.746	19.82
740.062	19.87
740.378	20
740.693	20.1
741.009	20.23
741.325	20.45
741.641	20.65
741.956	20.91
742.272	21.14
742.587	21.31
742.903	21.52
743.218	21.62
743.533	21.61
743.849	21.86
744.164	22.02
744.479	22.16
744.794	22.16
745.109	22.18
745.424	22.24
745.739	22.29
746.054	22.48
746.369	22.57
746.684	22.65
746.999	22.78
747.313	22.96
747.628	23.14
747.943	23.24
748.257	23.3
748.572	23.26
748.886	23.27
749.201	23.25
749.515	23.18
749.829	23.26
750.144	23.46
750.458	23.63
750.772	23.75
751.086	23.75
751.4	23.83
751.714	23.89
752.028	23.88
752.342	23.9
752.656	23.97
752.97	24.04
753.284	24.34
753.597	24.35
753.911	24.46
754.225	24.49
754.538	24.32
754.852	24.43
755.165	24.64
755.478	24.67
755.792	24.73
756.105	24.93
756.418	24.92
756.731	24.9
757.045	25.08
757.358	25.02
757.671	25.11
757.984	25.26
758.297	25.41
758.609	25.59
758.922	25.64
759.235	25.64
759.548	25.84
759.86	25.65
760.173	25.47
760.486	25.06
760.798	25
761.111	25.07
761.423	25.04
761.735	24.89
762.048	24.79
762.36	24.92
762.672	24.99
762.984	25.02
763.296	25.04
763.608	24.88
763.92	25
764.232	25.13
764.544	25.12
764.856	25.09
765.168	25.13
765.48	25.25
765.791	25.5
766.103	25.55
766.414	25.79
766.726	26.23
767.037	26.74
767.349	27.17
767.66	27.41
767.972	27.73
768.283	28.39
768.594	29.04
768.905	29.36
769.216	29.48
769.527	30.02
769.838	30.63
770.149	31.41
770.46	31.79
770.771	32.02
771.082	32.35
771.393	32.72
771.703	33.01
772.014	33.32
772.324	33.35
772.635	33.72
772.945	34.05
773.256	34.27
773.566	34.66
773.877	34.8
774.187	35.25
774.497	35.34
774.807	35.23
775.117	35.29
775.427	35.61
775.737	35.98
776.047	36.13
776.357	35.98
776.667	35.75
776.977	35.75
777.287	35.97
777.596	36.12
777.906	36.04
778.216	36.19
778.525	36.22
778.835	36.43
779.144	36.27
779.453	36.17
779.763	36.31
780.072	36.27
780.381	36.29
780.69	36.49
781	36.68
781.309	36.77
781.618	36.8
781.927	36.62
782.235	36.72
782.544	36.62
782.853	36.92
783.162	37.03
783.471	37.35
783.779	37.56
784.088	37.69
784.396	37.92
784.705	37.99
785.013	37.83
785.322	37.45
785.63	37.3
785.938	37.36
786.246	37.15
786.554	37.1
786.863	37.31
787.171	37.07
787.479	36.97
787.787	37.01
788.094	37.14
788.402	37.17
788.71	37.22
789.018	37.12
789.326	36.96
789.633	37.33
789.941	37.25
790.248	36.97
790.556	37.05
790.863	37.2
791.171	37.08
791.478	37.47
791.785	38.06
792.092	38.56
792.399	38.66
792.707	38.79
793.014	39.07
793.321	38.96
793.628	39.18
793.934	39.43
794.241	39.48
794.548	39.35
794.855	39.48
795.161	39.41
795.468	39.41
795.775	39.46
796.081	39.15
796.388	39.38
796.694	39.54
797	39.54
797.307	39.55
797.613	39.86
797.919	39.77
798.225	39.56
798.531	39.52
798.837	39.66
799.143	39.77
799.449	39.96
799.755	40.2
800.061	40.42
800.367	40.63
800.672	40.94
800.978	41.15
801.284	41.49
801.589	41.89
801.895	42.38
802.2	42.59
802.506	42.65
802.811	42.35
803.116	42.17
803.421	42.23
803.727	42.24
804.032	41.98
804.337	41.9
804.642	41.65
804.947	41.66
805.252	41.88
805.556	42.04
805.861	42.02
806.166	42.33
806.471	42.2
806.775	42.21
807.08	42.24
807.384	42.59
807.689	42.46
807.993	42.06
808.298	41.95
808.602	41.82
808.906	42.13
809.211	42.7
809.515	43.09
809.819	43.56
810.123	43.74
810.427	44.2
810.731	44.63
811.035	45.03
811.338	45.2
811.642	45.06
811.946	45.15
812.25	45.12
812.553	44.74
812.857	44.95
813.16	45.06
813.464	45.01
813.767	44.85
814.07	44.9
814.374	45.41
814.677	45.49
814.98	45.59
815.283	45.53
815.586	45.39
815.889	45.38
816.192	44.76
816.495	44.69
816.798	44.2
817.101	43.81
817.404	43.31
817.706	42.76
818.009	41.9
818.312	40.96
818.614	39.84
818.917	38.22
819.219	36.24
819.521	33.91
819.824	32
820.126	30.4
820.428	29.13
820.73	28.18
821.032	27.5
821.334	27.12
821.636	26.76
821.938	26.5
822.24	26.36
822.542	26.29
822.844	26.18
823.145	26.18
823.447	26.07
823.749	26.08
824.05	25.93
824.352	25.88
824.653	25.8
824.955	25.68
825.256	25.72
825.557	25.85
825.858	26.1
826.16	26.46
826.461	26.92
826.762	27.56
827.063	28.16
827.364	28.83
827.665	29.49
827.965	30.07
828.266	30.44
828.567	30.95
828.868	31.41
829.168	31.82
829.469	32.17
829.769	32.59
830.07	33.05
830.37	33.58
830.67	34.15
830.971	34.77
831.271	35.56
831.571	36
831.871	36.33
832.171	36.65
832.471	36.83
832.771	36.88
833.071	36.89
833.371	37.09
833.671	37
833.971	36.89
834.27	36.87
834.57	37.06
834.869	36.85
835.169	37.02
835.468	36.96
835.768	37.2
836.067	37.56
836.367	37.55
836.666	37.96
836.965	38.42
837.264	39.02
837.563	39.61
837.862	40.43
838.161	41.35
838.46	42.69
838.759	43.73
839.058	44.99
839.356	46.25
839.655	47.02
839.954	47.88
840.252	48.55
840.551	49.13
840.849	49.53
841.148	49.88
841.446	49.76
841.744	50.22
842.043	49.86
842.341	49.74
842.639	50.42
842.937	51.16
843.235	51.66
843.533	52.69
843.831	53.38
844.129	54.64
844.427	54.98
844.724	55.55
845.022	56.16
845.32	56.83
845.617	57.31
845.915	57.97
846.212	59.4
846.51	60.06
846.807	61.14
847.104	61.77
847.402	63.19
847.699	63.67
847.996	64.07
848.293	64.55
848.59	64.88
848.887	64.23
849.184	64.5
849.481	64.79
849.778	64.73
850.074	65.02
850.371	65.67
850.668	66.66
850.964	66.08
851.261	66.08
851.557	66.33
851.854	66.9
852.15	67.98
852.446	67.48
852.743	67.82
853.039	67.34
853.335	68.05
853.631	68.54
853.927	69.19
854.223	69.09
854.519	68.7
854.815	68.88
855.111	69.65
855.406	69.72
855.702	70.03
855.998	69.61
856.293	70.82
856.589	71.01
856.884	71.69
857.18	72.55
857.475	72.89
857.77	72.51
858.066	72.32
858.361	71.6
858.656	71.82
858.951	72.35
859.246	72.99
859.541	72.69
859.836	71.52
860.131	71.8
860.426	73.14
860.72	74.77
861.015	73.99
861.31	73.05
861.604	73.19
861.899	72.96
862.193	73.62
862.487	72.09
862.782	71.59
863.076	70.23
863.37	69.8
863.664	70.28
863.959	71.7
864.253	71.67
864.547	71.65
864.841	71.85
865.135	71.77
865.428	72.3
865.722	72.62
866.016	73.58
866.31	72.98
866.603	72.44
866.897	71.41
867.19	72.15
867.484	73.27
867.777	73.56
868.07	73.75
868.364	73.03
868.657	73.69
868.95	73.38
869.243	73.91
869.536	73.77
869.829	74.07
870.122	72.86
870.415	72.55
870.708	73.02
871	72.93
871.293	71.94
871.586	70.87
871.878	70.49
872.171	70.29
872.463	69.36
872.756	68.03
873.048	68.9
873.341	68.56
873.633	67.96
873.925	66.91
874.217	66.69
874.509	66.94
874.801	66.81
875.093	66.82
875.385	66.83
875.677	67.43
875.969	66.5
