Data from pcis_p_h3_p6_Reflection_5.txt Node
Date: Wed Jul 12 17:55:52 ART 2017
User: rodoncho
Spectrometer: USB2E3644
Trigger mode: 4
Integration Time (sec): 6.000000E-2
Scans to average: 10
Electric dark correction enabled: true
Nonlinearity correction enabled: false
Boxcar width: 10
XAxis mode: Wavelengths
Number of Pixels in Spectrum: 2048
>>>>>Begin Spectral Data<<<<<
178.315	1773.53
178.696	1757.14
179.076	369.34
179.457	166.44
179.838	109.32
180.218	43.45
180.599	810
180.979	41.18
181.36	23.94
181.74	-87.1
182.121	291.18
182.501	74.07
182.881	51.96
183.262	32.41
183.642	-56.8
184.022	377.59
184.402	200.54
184.783	194.52
185.163	177.59
185.543	174.25
185.923	175.6
186.303	204.5
186.683	217.87
187.063	182.69
187.443	154.17
187.823	141.37
188.203	126.75
188.583	131.09
188.963	126.59
189.343	124.71
189.723	122.01
190.102	120.98
190.482	118.3
190.862	119.3
191.242	119.12
191.621	115.81
192.001	122.85
192.38	125.27
192.76	126.11
193.14	123.96
193.519	117.59
193.898	111.25
194.278	106
194.657	103.34
195.037	103.21
195.416	104.13
195.795	104.22
196.175	107.98
196.554	111.2
196.933	113.33
197.312	113.81
197.692	113.75
198.071	113.99
198.45	113.86
198.829	112.65
199.208	109.41
199.587	109.17
199.966	107.69
200.345	105.08
200.724	102.79
201.103	102.94
201.482	105.14
201.86	109.25
202.239	111.97
202.618	112.63
202.997	114.12
203.375	115.38
203.754	115.98
204.133	114.18
204.511	111.93
204.89	110.39
205.269	109.35
205.647	108.81
206.026	108.93
206.404	107.35
206.782	108.01
207.161	109.75
207.539	110.58
207.918	111.56
208.296	113.72
208.674	116.1
209.052	114.89
209.431	113.86
209.809	112.21
210.187	110.02
210.565	110.39
210.943	109.14
211.321	107.58
211.699	106.87
212.077	106.89
212.455	106.61
212.833	107.71
213.211	107.19
213.589	107.83
213.967	107.01
214.345	107.22
214.722	106.05
215.1	106.45
215.478	106.19
215.855	106.1
216.233	104.09
216.611	103.54
216.988	103.81
217.366	104.19
217.743	105.11
218.121	105.18
218.498	104.26
218.876	103.99
219.253	104.14
219.631	103.85
220.008	103.78
220.385	103.32
220.762	102.38
221.14	102.14
221.517	102.5
221.894	103.55
222.271	104.15
222.648	106.01
223.025	107.16
223.402	106.99
223.78	106.39
224.157	107.84
224.533	107.92
224.91	107.69
225.287	107.78
225.664	107.49
226.041	109.65
226.418	110.6
226.795	111.63
227.171	111.89
227.548	112.32
227.925	113.03
228.301	114.96
228.678	115.32
229.055	115.44
229.431	115.12
229.808	115.72
230.184	115.64
230.561	114.26
230.937	112.81
231.313	112.88
231.69	113.59
232.066	113.9
232.442	114.04
232.819	114.99
233.195	114.75
233.571	114.58
233.947	113.18
234.323	112.48
234.699	112.25
235.075	112.09
235.451	112.11
235.827	112.81
236.203	111.51
236.579	112.87
236.955	114.83
237.331	116.39
237.707	117.72
238.083	119.99
238.459	125.52
238.834	131.19
239.21	136.6
239.586	143.1
239.961	148.15
240.337	150.73
240.713	155.51
241.088	162.4
241.464	166.78
241.839	176.52
242.215	187.38
242.59	204.5
242.965	240.95
243.341	323.51
243.716	475.5
244.091	912.6
244.467	2082.31
244.842	-7933.64
245.217	-1749
245.592	-1325.07
245.967	-1130.1
246.343	-1354.53
246.718	-1688.62
247.093	-1668.47
247.468	-1612.23
247.843	-1417.26
248.218	-921.16
248.593	-640.25
248.967	-508.44
249.342	-441.19
249.717	-461.28
250.092	-477.3
250.467	-548.73
250.841	-825.43
251.216	-3226.1
251.591	1764.74
251.965	748.74
252.34	570.49
252.714	484.38
253.089	426.51
253.463	397.6
253.838	405.31
254.212	430.77
254.587	472.78
254.961	542.21
255.335	777.05
255.71	4905.79
256.084	-815.93
256.458	-376.31
256.832	-254.87
257.206	-207.71
257.581	-180.93
257.955	-168.57
258.329	-158.09
258.703	-143.86
259.077	-134.23
259.451	-126.67
259.825	-119.49
260.199	-115.2
260.572	-111.55
260.946	-107.31
261.32	-104.69
261.694	-102.58
262.068	-99.72
262.441	-96.6
262.815	-93.44
263.189	-94.71
263.562	-100.24
263.936	-114.56
264.309	-135.5
264.683	-158.27
265.056	-171.35
265.43	-180.3
265.803	-175.27
266.176	-168.95
266.55	-168.95
266.923	-164.05
267.296	-154.7
267.67	-146.16
268.043	-133.94
268.416	-123.79
268.789	-111.77
269.162	-99.87
269.535	-93.19
269.908	-88.58
270.281	-86.38
270.654	-86.29
271.027	-87.35
271.4	-88.47
271.773	-89.47
272.146	-88.53
272.519	-84.68
272.891	-82.28
273.264	-81.62
273.637	-81.03
274.01	-80.59
274.382	-79.28
274.755	-78.92
275.127	-79.51
275.5	-80.13
275.872	-79.22
276.245	-79.62
276.617	-80.86
276.99	-85.22
277.362	-88.66
277.734	-90.99
278.107	-90.26
278.479	-86.21
278.851	-81.9
279.223	-78.45
279.596	-76.6
279.968	-75.95
280.34	-76.1
280.712	-74.25
281.084	-69.49
281.456	-63.86
281.828	-59.17
282.2	-54.2
282.572	-50.01
282.944	-47.23
283.315	-45.83
283.687	-45.15
284.059	-44.4
284.431	-43.81
284.802	-42.35
285.174	-40.4
285.546	-38.56
285.917	-37.95
286.289	-37.47
286.66	-36.58
287.032	-36.47
287.403	-36.07
287.775	-35.35
288.146	-34.81
288.518	-34.9
288.889	-34.93
289.26	-35.88
289.632	-36.57
290.003	-38.37
290.374	-39.74
290.745	-39.57
291.116	-38.55
291.487	-37.61
291.858	-36.71
292.229	-35.63
292.6	-33.67
292.971	-32.47
293.342	-31.07
293.713	-28.7
294.084	-27.03
294.455	-26
294.826	-24.95
295.196	-24.61
295.567	-24.11
295.938	-23.73
296.308	-23.58
296.679	-22.95
297.05	-22.54
297.42	-22.48
297.791	-21.27
298.161	-20.3
298.532	-19.91
298.902	-19.66
299.272	-19.34
299.643	-18.71
300.013	-18.36
300.383	-18.37
300.754	-18.12
301.124	-17.91
301.494	-18.04
301.864	-18.24
302.234	-18.42
302.604	-18.57
302.974	-18.17
303.344	-18.28
303.714	-18.17
304.084	-17.58
304.454	-17.53
304.824	-16.8
305.194	-15.87
305.563	-15.36
305.933	-14.62
306.303	-13.68
306.673	-13.37
307.042	-13.04
307.412	-12.22
307.781	-11.24
308.151	-10.4
308.521	-9.74
308.89	-9.46
309.259	-9.22
309.629	-8.99
309.998	-8.87
310.368	-8.65
310.737	-8.24
311.106	-7.82
311.475	-7.27
311.845	-7.04
312.214	-6.67
312.583	-6.4
312.952	-6.02
313.321	-5.93
313.69	-6.01
314.059	-6.31
314.428	-6.38
314.797	-6.42
315.166	-6.96
315.535	-7.61
315.904	-8.07
316.272	-8.45
316.641	-8.54
317.01	-8.81
317.379	-8.73
317.747	-8.4
318.116	-8.17
318.484	-7.96
318.853	-7.04
319.221	-6.82
319.59	-6.5
319.958	-6.66
320.327	-6.56
320.695	-6.31
321.063	-5.94
321.432	-5.14
321.8	-4.57
322.168	-3.84
322.536	-3.19
322.905	-2.48
323.273	-1.84
323.641	-1.36
324.009	-1.16
324.377	-0.96
324.745	-0.36
325.113	-0.02
325.481	0.53
325.849	1.25
326.216	1.71
326.584	1.83
326.952	2.16
327.32	2.65
327.687	3.39
328.055	3.8
328.423	4.07
328.79	4.32
329.158	4.14
329.525	4.37
329.893	4.6
330.26	4.77
330.628	4.82
330.995	5.09
331.362	5.42
331.73	5.95
332.097	6.34
332.464	6.43
332.831	6.54
333.199	6.71
333.566	6.72
333.933	6.71
334.3	6.68
334.667	6.88
335.034	6.87
335.401	6.89
335.768	6.97
336.135	7.07
336.502	7.32
336.868	7.69
337.235	7.98
337.602	8.25
337.969	8.43
338.335	8.86
338.702	9.15
339.069	9.21
339.435	9.34
339.802	9.54
340.168	9.79
340.535	10.1
340.901	10.28
341.267	10.54
341.634	10.94
342	11.21
342.366	11.41
342.733	11.7
343.099	12.04
343.465	12.38
343.831	12.6
344.197	12.59
344.563	12.64
344.929	12.79
345.295	12.94
345.661	13.13
346.027	13.32
346.393	13.35
346.759	13.43
347.125	13.47
347.491	13.61
347.856	13.7
348.222	13.65
348.588	13.72
348.953	13.83
349.319	13.97
349.684	14.13
350.05	14.22
350.415	14.31
350.781	14.35
351.146	14.38
351.512	14.53
351.877	14.84
352.242	15.12
352.608	15.16
352.973	15.2
353.338	15.21
353.703	15.22
354.068	15.43
354.433	15.7
354.798	15.9
355.164	15.98
355.528	16.13
355.893	16.37
356.258	16.47
356.623	16.55
356.988	16.59
357.353	16.69
357.718	16.89
358.082	17.07
358.447	17.2
358.812	17.38
359.176	17.46
359.541	17.49
359.905	17.56
360.27	17.67
360.634	17.91
360.999	18.05
361.363	18.17
361.728	18.21
362.092	18.22
362.456	18.32
362.821	18.47
363.185	18.6
363.549	18.7
363.913	18.81
364.277	18.88
364.641	18.96
365.005	19.03
365.369	19.13
365.733	19.17
366.097	19.3
366.461	19.34
366.825	19.38
367.189	19.48
367.553	19.6
367.916	19.82
368.28	19.85
368.644	19.97
369.007	20.08
369.371	20.23
369.734	20.34
370.098	20.44
370.461	20.53
370.825	20.59
371.188	20.74
371.552	20.9
371.915	20.94
372.278	21.02
372.642	21.22
373.005	21.28
373.368	21.36
373.731	21.41
374.094	21.51
374.457	21.56
374.82	21.61
375.183	21.67
375.546	21.66
375.909	21.74
376.272	21.8
376.635	21.86
376.998	21.9
377.361	21.91
377.723	21.96
378.086	22.04
378.449	22.18
378.811	22.23
379.174	22.23
379.537	22.32
379.899	22.41
380.262	22.37
380.624	22.37
380.987	22.43
381.349	22.43
381.711	22.46
382.074	22.6
382.436	22.69
382.798	22.7
383.16	22.8
383.522	22.86
383.884	22.92
384.247	23
384.609	23.11
384.971	23.2
385.333	23.23
385.695	23.21
386.056	23.18
386.418	23.16
386.78	23.23
387.142	23.27
387.504	23.33
387.865	23.33
388.227	23.41
388.589	23.42
388.95	23.45
389.312	23.47
389.673	23.44
390.035	23.4
390.396	23.47
390.758	23.43
391.119	23.4
391.48	23.41
391.842	23.37
392.203	23.28
392.564	23.26
392.925	23.25
393.286	23.28
393.648	23.23
394.009	23.26
394.37	23.27
394.731	23.23
395.092	23.17
395.452	23.19
395.813	23.15
396.174	23.16
396.535	23.16
396.896	23.13
397.257	23.14
397.617	23.15
397.978	23.1
398.338	23.14
398.699	23.16
399.06	23.15
399.42	23.09
399.781	23.1
400.141	23.08
400.501	23.06
400.862	23
401.222	23.06
401.582	23.04
401.943	22.97
402.303	22.97
402.663	22.98
403.023	22.95
403.383	22.96
403.743	22.95
404.103	22.99
404.463	23.04
404.823	23.04
405.183	23.06
405.543	23.07
405.903	23.04
406.262	23.02
406.622	23.01
406.982	23.04
407.342	23.1
407.701	23.11
408.061	23.09
408.42	23.11
408.78	23.06
409.139	23.09
409.499	23.08
409.858	23.11
410.217	23.13
410.577	23.11
410.936	23.1
411.295	23.08
411.655	23.04
412.014	22.99
412.373	22.95
412.732	22.88
413.091	22.81
413.45	22.7
413.809	22.63
414.168	22.53
414.527	22.47
414.886	22.33
415.245	22.24
415.603	22.16
415.962	22.06
416.321	21.96
416.679	21.87
417.038	21.76
417.397	21.63
417.755	21.51
418.114	21.43
418.472	21.33
418.831	21.27
419.189	21.2
419.547	21.11
419.906	21.04
420.264	20.96
420.622	20.91
420.981	20.87
421.339	20.81
421.697	20.76
422.055	20.71
422.413	20.67
422.771	20.63
423.129	20.6
423.487	20.58
423.845	20.57
424.203	20.53
424.56	20.51
424.918	20.5
425.276	20.51
425.634	20.53
425.991	20.53
426.349	20.51
426.707	20.51
427.064	20.53
427.422	20.55
427.779	20.59
428.137	20.59
428.494	20.61
428.851	20.64
429.209	20.68
429.566	20.68
429.923	20.7
430.28	20.73
430.637	20.78
430.995	20.8
431.352	20.81
431.709	20.86
432.066	20.92
432.423	20.99
432.78	21.02
433.137	21.04
433.493	21.07
433.85	21.15
434.207	21.17
434.564	21.21
434.92	21.23
435.277	21.24
435.634	21.28
435.99	21.3
436.347	21.31
436.703	21.35
437.06	21.4
437.416	21.45
437.773	21.49
438.129	21.49
438.485	21.5
438.841	21.51
439.198	21.51
439.554	21.52
439.91	21.51
440.266	21.49
440.622	21.47
440.978	21.44
441.334	21.35
441.69	21.3
442.046	21.2
442.402	21.13
442.758	21.03
443.113	20.96
443.469	20.88
443.825	20.82
444.181	20.74
444.536	20.69
444.892	20.61
445.247	20.55
445.603	20.48
445.958	20.42
446.314	20.37
446.669	20.29
447.025	20.21
447.38	20.16
447.735	20.09
448.09	20.03
448.446	19.98
448.801	19.94
449.156	19.88
449.511	19.84
449.866	19.82
450.221	19.82
450.576	19.79
450.931	19.77
451.286	19.74
451.641	19.71
451.995	19.64
452.35	19.62
452.705	19.59
453.06	19.61
453.414	19.62
453.769	19.63
454.123	19.66
454.478	19.7
454.832	19.68
455.187	19.69
455.541	19.7
455.896	19.76
456.25	19.78
456.604	19.83
456.958	19.87
457.313	19.91
457.667	19.95
458.021	20.02
458.375	20.11
458.729	20.21
459.083	20.29
459.437	20.38
459.791	20.48
460.145	20.55
460.499	20.65
460.852	20.72
461.206	20.82
461.56	20.94
461.914	21.06
462.267	21.19
462.621	21.35
462.974	21.56
463.328	21.74
463.681	21.97
464.035	22.2
464.388	22.43
464.742	22.63
465.095	22.86
465.448	23.03
465.801	23.18
466.155	23.33
466.508	23.47
466.861	23.62
467.214	23.75
467.567	23.88
467.92	24.01
468.273	24.12
468.626	24.24
468.979	24.32
469.332	24.42
469.684	24.51
470.037	24.58
470.39	24.64
470.743	24.73
471.095	24.79
471.448	24.83
471.8	24.88
472.153	24.92
472.505	24.88
472.858	24.87
473.21	24.84
473.562	24.77
473.915	24.73
474.267	24.66
474.619	24.58
474.971	24.47
475.324	24.36
475.676	24.26
476.028	24.15
476.38	24.03
476.732	23.9
477.084	23.77
477.436	23.64
477.787	23.46
478.139	23.31
478.491	23.15
478.843	22.96
479.195	22.75
479.546	22.49
479.898	22.22
480.249	21.96
480.601	21.8
480.952	21.65
481.304	21.5
481.655	21.4
482.007	21.32
482.358	21.26
482.709	21.21
483.061	21.14
483.412	21.08
483.763	21.06
484.114	21.04
484.465	21.03
484.816	21.02
485.167	21.02
485.518	21.02
485.869	21.03
486.22	21.05
486.571	21.09
486.922	21.15
487.272	21.23
487.623	21.36
487.974	21.49
488.324	21.67
488.675	21.86
489.025	22.02
489.376	22.17
489.726	22.32
490.077	22.48
490.427	22.65
490.778	22.85
491.128	23.06
491.478	23.3
491.828	23.57
492.179	23.86
492.529	24.19
492.879	24.5
493.229	24.82
493.579	25.11
493.929	25.41
494.279	25.71
494.629	26.03
494.979	26.4
495.328	26.82
495.678	27.3
496.028	27.8
496.378	28.28
496.727	28.74
497.077	29.14
497.426	29.57
497.776	29.97
498.125	30.35
498.475	30.71
498.824	31.07
499.174	31.4
499.523	31.74
499.872	32.06
500.221	32.43
500.571	32.81
500.92	33.21
501.269	33.58
501.618	33.98
501.967	34.38
502.316	34.78
502.665	35.18
503.014	35.48
503.363	35.82
503.711	36.11
504.06	36.42
504.409	36.75
504.758	37.03
505.106	37.31
505.455	37.58
505.803	37.82
506.152	38.03
506.5	38.27
506.849	38.49
507.197	38.74
507.546	38.98
507.894	39.19
508.242	39.4
508.59	39.6
508.939	39.76
509.287	39.89
509.635	40.02
509.983	40.18
510.331	40.36
510.679	40.53
511.027	40.68
511.375	40.82
511.723	40.99
512.07	41.14
512.418	41.32
512.766	41.49
513.114	41.65
513.461	41.81
513.809	41.93
514.156	42.07
514.504	42.2
514.851	42.28
515.199	42.42
515.546	42.52
515.893	42.64
516.241	42.76
516.588	42.9
516.935	43
517.282	43.05
517.63	43.13
517.977	43.19
518.324	43.27
518.671	43.39
519.018	43.46
519.365	43.54
519.711	43.58
520.058	43.62
520.405	43.7
520.752	43.77
521.099	43.85
521.445	43.94
521.792	44.04
522.138	44.15
522.485	44.2
522.832	44.32
523.178	44.41
523.524	44.51
523.871	44.61
524.217	44.71
524.563	44.83
524.91	44.97
525.256	45.11
525.602	45.21
525.948	45.24
526.294	45.26
526.64	45.3
526.986	45.36
527.332	45.4
527.678	45.43
528.024	45.46
528.37	45.5
528.716	45.54
529.061	45.57
529.407	45.64
529.753	45.71
530.098	45.78
530.444	45.83
530.789	45.87
531.135	45.9
531.48	45.94
531.826	46.01
532.171	46.07
532.516	46.11
532.862	46.19
533.207	46.28
533.552	46.37
533.897	46.45
534.242	46.51
534.587	46.56
534.932	46.62
535.277	46.69
535.622	46.74
535.967	46.81
536.312	46.89
536.657	46.91
537.001	47.03
537.346	47.11
537.691	47.19
538.035	47.29
538.38	47.38
538.724	47.41
539.069	47.42
539.413	47.44
539.758	47.45
540.102	47.49
540.446	47.48
540.791	47.51
541.135	47.54
541.479	47.57
541.823	47.62
542.167	47.66
542.512	47.68
542.856	47.71
543.2	47.72
543.543	47.76
543.887	47.81
544.231	47.82
544.575	47.86
544.919	47.9
545.262	47.92
545.606	47.96
545.95	48.03
546.293	48.1
546.637	48.18
546.98	48.31
547.324	48.39
547.667	48.52
548.011	48.59
548.354	48.66
548.697	48.71
549.04	48.77
549.384	48.8
549.727	48.87
550.07	48.94
550.413	49.02
550.756	49.07
551.099	49.14
551.442	49.19
551.785	49.22
552.128	49.28
552.47	49.35
552.813	49.38
553.156	49.43
553.499	49.49
553.841	49.49
554.184	49.46
554.526	49.46
554.869	49.46
555.211	49.49
555.554	49.53
555.896	49.61
556.238	49.64
556.581	49.71
556.923	49.74
557.265	49.74
557.607	49.82
557.949	49.87
558.291	49.92
558.633	50
558.975	50.06
559.317	50.08
559.659	50.08
560.001	50.09
560.343	50.13
560.685	50.14
561.026	50.18
561.368	50.24
561.71	50.27
562.051	50.3
562.393	50.31
562.734	50.32
563.076	50.29
563.417	50.3
563.759	50.31
564.1	50.37
564.441	50.41
564.782	50.41
565.124	50.39
565.465	50.36
565.806	50.35
566.147	50.36
566.488	50.39
566.829	50.42
567.17	50.44
567.511	50.46
567.851	50.46
568.192	50.49
568.533	50.5
568.874	50.57
569.214	50.64
569.555	50.65
569.895	50.66
570.236	50.7
570.576	50.73
570.917	50.71
571.257	50.72
571.598	50.74
571.938	50.73
572.278	50.78
572.618	50.83
572.959	50.86
573.299	50.85
573.639	50.83
573.979	50.84
574.319	50.88
574.659	50.86
574.999	50.87
575.339	50.85
575.678	50.86
576.018	50.83
576.358	50.77
576.698	50.76
577.037	50.79
577.377	50.77
577.716	50.75
578.056	50.78
578.395	50.74
578.735	50.77
579.074	50.81
579.413	50.82
579.753	50.83
580.092	50.84
580.431	50.88
580.77	50.96
581.109	50.95
581.448	50.96
581.787	50.98
582.126	51
582.465	51.08
582.804	51.08
583.143	51.06
583.482	51.1
583.82	51.15
584.159	51.19
584.498	51.19
584.836	51.26
585.175	51.29
585.514	51.33
585.852	51.35
586.19	51.35
586.529	51.35
586.867	51.35
587.205	51.35
587.544	51.36
587.882	51.32
588.22	51.33
588.558	51.32
588.896	51.3
589.234	51.28
589.572	51.24
589.91	51.23
590.248	51.31
590.586	51.3
590.924	51.29
591.262	51.27
591.599	51.35
591.937	51.34
592.275	51.33
592.612	51.4
592.95	51.39
593.287	51.38
593.625	51.39
593.962	51.4
594.299	51.44
594.637	51.44
594.974	51.49
595.311	51.51
595.648	51.51
595.985	51.53
596.322	51.52
596.659	51.52
596.996	51.56
597.333	51.54
597.67	51.54
598.007	51.55
598.344	51.59
598.681	51.51
599.017	51.54
599.354	51.56
599.691	51.56
600.027	51.57
600.364	51.57
600.7	51.61
601.037	51.64
601.373	51.61
601.71	51.63
602.046	51.64
602.382	51.67
602.718	51.63
603.054	51.62
603.391	51.66
603.727	51.67
604.063	51.68
604.399	51.67
604.735	51.67
605.071	51.68
605.406	51.67
605.742	51.7
606.078	51.68
606.414	51.69
606.749	51.69
607.085	51.65
607.421	51.67
607.756	51.63
608.092	51.6
608.427	51.58
608.762	51.52
609.098	51.47
609.433	51.45
609.768	51.47
610.104	51.48
610.439	51.48
610.774	51.51
611.109	51.5
611.444	51.49
611.779	51.49
612.114	51.47
612.449	51.47
612.784	51.47
613.118	51.48
613.453	51.43
613.788	51.36
614.123	51.39
614.457	51.4
614.792	51.48
615.126	51.52
615.461	51.5
615.795	51.53
616.13	51.54
616.464	51.55
616.798	51.6
617.132	51.67
617.467	51.7
617.801	51.66
618.135	51.64
618.469	51.63
618.803	51.59
619.137	51.6
619.471	51.59
619.805	51.63
620.139	51.62
620.472	51.65
620.806	51.7
621.14	51.67
621.473	51.63
621.807	51.52
622.141	51.45
622.474	51.51
622.808	51.51
623.141	51.5
623.474	51.51
623.808	51.53
624.141	51.48
624.474	51.49
624.807	51.52
625.141	51.57
625.474	51.58
625.807	51.57
626.14	51.6
626.473	51.61
626.806	51.63
627.138	51.63
627.471	51.65
627.804	51.62
628.137	51.66
628.469	51.66
628.802	51.71
629.135	51.71
629.467	51.64
629.8	51.64
630.132	51.7
630.465	51.69
630.797	51.64
631.129	51.62
631.461	51.58
631.794	51.51
632.126	51.46
632.458	51.44
632.79	51.57
633.122	51.59
633.454	51.58
633.786	51.52
634.118	51.52
634.45	51.49
634.781	51.5
635.113	51.45
635.445	51.46
635.777	51.44
636.108	51.5
636.44	51.59
636.771	51.57
637.103	51.56
637.434	51.56
637.765	51.58
638.097	51.64
638.428	51.65
638.759	51.71
639.09	51.68
639.422	51.68
639.753	51.67
640.084	51.66
640.415	51.72
640.746	51.7
641.077	51.69
641.407	51.69
641.738	51.68
642.069	51.75
642.4	51.79
642.73	51.83
643.061	51.81
643.392	51.84
643.722	51.95
644.053	51.92
644.383	51.93
644.713	51.93
645.044	51.9
645.374	51.89
645.704	51.91
646.034	51.96
646.365	51.98
646.695	52.02
647.025	51.98
647.355	51.92
647.685	52
648.015	52.01
648.344	52.05
648.674	52.06
649.004	52.02
649.334	51.98
649.663	51.99
649.993	52.01
650.323	51.99
650.652	51.93
650.982	51.9
651.311	51.92
651.64	51.91
651.97	51.92
652.299	51.93
652.628	51.91
652.958	51.9
653.287	51.91
653.616	51.83
653.945	51.86
654.274	51.86
654.603	51.78
654.932	51.79
655.261	51.86
655.589	51.96
655.918	52
656.247	52.12
656.576	52.19
656.904	52.24
657.233	52.27
657.561	52.34
657.89	52.4
658.218	52.38
658.547	52.42
658.875	52.35
659.203	52.38
659.532	52.4
659.86	52.45
660.188	52.54
660.516	52.55
660.844	52.52
661.172	52.55
661.5	52.6
661.828	52.6
662.156	52.58
662.484	52.51
662.811	52.57
663.139	52.47
663.467	52.45
663.794	52.42
664.122	52.36
664.45	52.33
664.777	52.3
665.104	52.33
665.432	52.3
665.759	52.39
666.086	52.39
666.414	52.41
666.741	52.44
667.068	52.35
667.395	52.34
667.722	52.34
668.049	52.39
668.376	52.42
668.703	52.5
669.03	52.53
669.357	52.56
669.683	52.52
670.01	52.59
670.337	52.54
670.663	52.48
670.99	52.51
671.317	52.43
671.643	52.47
671.969	52.48
672.296	52.52
672.622	52.55
672.948	52.53
673.275	52.48
673.601	52.51
673.927	52.51
674.253	52.6
674.579	52.61
674.905	52.6
675.231	52.62
675.557	52.54
675.883	52.56
676.209	52.6
676.534	52.57
676.86	52.54
677.186	52.61
677.511	52.72
677.837	52.76
678.162	52.9
678.488	52.99
678.813	52.98
679.139	52.9
679.464	52.86
679.789	52.88
680.114	52.94
680.44	52.95
680.765	53.01
681.09	52.94
681.415	53.03
681.74	52.95
682.065	52.93
682.39	52.97
682.714	52.9
683.039	52.84
683.364	52.88
683.689	52.86
684.013	52.86
684.338	52.88
684.662	52.89
684.987	52.88
685.311	52.8
685.636	52.87
685.96	53.01
686.284	53.04
686.608	53.11
686.933	53.09
687.257	53.13
687.581	53.12
687.905	53.14
688.229	53.06
688.553	53.13
688.877	53.15
689.201	53.07
689.524	53.09
689.848	53.12
690.172	53.11
690.496	53.22
690.819	53.25
691.143	53.17
691.466	53.14
691.79	53.15
692.113	53.23
692.436	53.13
692.76	52.98
693.083	52.95
693.406	52.92
693.729	53.02
694.053	52.91
694.376	52.88
694.699	53.05
695.022	53.25
695.344	53.37
695.667	53.51
695.99	53.64
696.313	53.71
696.636	53.77
696.958	53.79
697.281	53.73
697.604	53.67
697.926	53.7
698.249	53.77
698.571	53.7
698.893	53.66
699.216	53.67
699.538	53.78
699.86	53.71
700.182	53.65
700.504	53.57
700.827	53.65
701.149	53.65
701.471	53.55
701.793	53.45
702.114	53.31
702.436	53.15
702.758	53.06
703.08	52.97
703.401	52.9
703.723	52.79
704.045	52.81
704.366	52.84
704.688	52.86
705.009	52.74
705.331	52.79
705.652	52.76
705.973	52.82
706.294	52.86
706.616	53.08
706.937	53.21
707.258	53.32
707.579	53.26
707.9	53.3
708.221	53.32
708.542	53.31
708.863	53.46
709.183	53.61
709.504	53.7
709.825	53.79
710.145	53.82
710.466	53.96
710.787	53.94
711.107	53.94
711.427	53.91
711.748	53.91
712.068	53.83
712.388	53.9
712.709	53.85
713.029	53.9
713.349	53.85
713.669	53.76
713.989	53.79
714.309	53.78
714.629	53.8
714.949	53.82
715.269	53.88
715.589	53.78
715.908	53.66
716.228	53.63
716.548	53.59
716.867	53.52
717.187	53.48
717.506	53.54
717.826	53.51
718.145	53.45
718.465	53.63
718.784	53.68
719.103	53.67
719.422	53.75
719.741	53.68
720.061	53.8
720.38	53.95
720.699	53.88
721.018	53.94
721.336	53.94
721.655	54.04
721.974	54.04
722.293	54.19
722.612	54.31
722.93	54.37
723.249	54.41
723.567	54.6
723.886	54.66
724.204	54.69
724.523	54.77
724.841	55.05
725.159	55.04
725.477	55.15
725.796	55.15
726.114	55.28
726.432	55.47
726.75	55.57
727.068	55.58
727.386	55.7
727.704	55.77
728.022	55.89
728.339	55.9
728.657	55.98
728.975	56.06
729.292	56.11
729.61	56.24
729.928	56.47
730.245	56.43
730.562	56.45
730.88	56.62
731.197	56.66
731.514	56.67
731.832	56.75
732.149	56.83
732.466	57.09
732.783	57.03
733.1	57.05
733.417	56.9
733.734	57.13
734.051	57.2
734.368	57.38
734.684	57.43
735.001	57.41
735.318	57.34
735.634	57.32
735.951	57.37
736.268	57.42
736.584	57.35
736.9	57.67
737.217	57.83
737.533	57.87
737.849	58.09
738.166	58.18
738.482	58.22
738.798	58.28
739.114	58.14
739.43	58.25
739.746	58.16
740.062	58.42
740.378	58.28
740.693	58.3
741.009	58.31
741.325	58.38
741.641	58.6
741.956	58.74
742.272	58.83
742.587	58.94
742.903	59.1
743.218	59.17
743.533	58.92
743.849	58.87
744.164	58.89
744.479	58.83
744.794	58.7
745.109	58.7
745.424	58.91
745.739	59.04
746.054	59.16
746.369	59.32
746.684	59.35
746.999	59.56
747.313	59.73
747.628	59.81
747.943	59.88
748.257	59.84
748.572	60.06
748.886	60.04
749.201	60.11
749.515	60
749.829	60.13
750.144	60.38
750.458	60.6
750.772	60.54
751.086	60.73
751.4	60.83
751.714	61.07
752.028	61.06
752.342	61.08
752.656	61.09
752.97	61.09
753.284	60.97
753.597	60.85
753.911	60.82
754.225	60.89
754.538	60.93
754.852	61.13
755.165	61.24
755.478	61.31
755.792	61.23
756.105	61.28
756.418	61.15
756.731	61.35
757.045	61.29
757.358	61.29
757.671	61.23
757.984	61.36
758.297	61.17
758.609	61.33
758.922	61.27
759.235	61.36
759.548	61.6
759.86	61.59
760.173	61.72
760.486	61.73
760.798	61.47
761.111	61.4
761.423	61.39
761.735	61.32
762.048	61.25
762.36	61.34
762.672	61.27
762.984	61.39
763.296	61.21
763.608	61.21
763.92	61.29
764.232	61.35
764.544	61.35
764.856	61.48
765.168	61.36
765.48	61.63
765.791	61.75
766.103	61.69
766.414	61.76
766.726	61.82
767.037	61.96
767.349	62.17
767.66	62.3
767.972	62.29
768.283	62.4
768.594	62.67
768.905	62.69
769.216	62.99
769.527	63.13
769.838	63.45
770.149	63.81
770.46	64.26
770.771	64.31
771.082	64.59
771.393	64.87
771.703	64.76
772.014	64.63
772.324	64.69
772.635	64.8
772.945	65.36
773.256	65.35
773.566	65.45
773.877	65.57
774.187	65.82
774.497	65.79
774.807	65.77
775.117	66.06
775.427	66.26
775.737	66.21
776.047	66.16
776.357	65.97
776.667	65.73
776.977	65.64
777.287	65.56
777.596	65.4
777.906	65.15
778.216	65.57
778.525	65.65
778.835	65.87
779.144	66.07
779.453	66.03
779.763	66.35
780.072	66.35
780.381	66.63
780.69	66.47
781	66.69
781.309	66.65
781.618	66.59
781.927	66.94
782.235	67.02
782.544	67.24
782.853	67.45
783.162	67.55
783.471	67.62
783.779	68.02
784.088	68.04
784.396	68.05
784.705	68.05
785.013	67.87
785.322	67.62
785.63	67.35
785.938	66.98
786.246	66.73
786.554	66.27
786.863	66.19
787.171	66.5
787.479	66.65
787.787	66.56
788.094	66.44
788.402	66.28
788.71	66.14
789.018	66.03
789.326	66.05
789.633	66.29
789.941	66.19
790.248	66.09
790.556	66.05
790.863	66.04
791.171	65.99
791.478	66.3
791.785	66.14
792.092	66.21
792.399	66.77
792.707	66.78
793.014	67.15
793.321	67.02
793.628	66.62
793.934	66.41
794.241	66.54
794.548	66.3
794.855	66.2
795.161	66.48
795.468	66.7
795.775	66.92
796.081	66.77
796.388	66.86
796.694	66.95
797	66.91
797.307	67.19
797.613	67.03
797.919	66.8
798.225	66.75
798.531	66.83
798.837	66.57
799.143	66.75
799.449	66.96
799.755	67.34
800.061	67.59
800.367	67.88
800.672	67.92
800.978	68.37
801.284	68.34
801.589	68.37
801.895	68.2
802.2	67.94
802.506	68.15
802.811	67.89
803.116	67.77
803.421	68
803.727	68.07
804.032	68.27
804.337	68.5
804.642	68.83
804.947	68.85
805.252	68.82
805.556	68.74
805.861	68.62
806.166	68.55
806.471	68.8
806.775	68.37
807.08	68.64
807.384	68.76
807.689	68.91
807.993	68.92
808.298	69.12
808.602	69.2
808.906	69.43
809.211	69.73
809.515	70.07
809.819	70.22
810.123	70.24
810.427	70.41
810.731	70.51
811.035	70.39
811.338	70.65
811.642	71.12
811.946	71.22
812.25	71.13
812.553	70.81
812.857	70.64
813.16	71.16
813.464	71.03
813.767	70.67
814.07	70.35
814.374	70.42
814.677	70.27
814.98	70.23
815.283	69.66
815.586	69.47
815.889	69.15
816.192	69.03
816.495	68.91
816.798	68.61
817.101	68.47
817.404	68.54
817.706	68.45
818.009	67.46
818.312	66.86
818.614	66.54
818.917	66.4
819.219	65.58
819.521	65.09
819.824	64.44
820.126	64.01
820.428	63.58
820.73	63.29
821.032	63.02
821.334	62.81
821.636	62.65
821.938	62.53
822.24	62.32
822.542	62.28
822.844	62.23
823.145	62.27
823.447	62.21
823.749	62.15
824.05	62.05
824.352	62.04
824.653	62.04
824.955	61.96
825.256	61.91
825.557	61.91
825.858	61.88
826.16	61.99
826.461	62.09
826.762	62.29
827.063	62.41
827.364	62.54
827.665	62.66
827.965	62.89
828.266	63.28
828.567	63.62
828.868	63.63
829.168	63.75
829.469	63.87
829.769	63.92
830.07	64.19
830.37	64.38
830.67	64.74
830.971	65.2
831.271	65.58
831.571	65.53
831.871	65.83
832.171	65.87
832.471	66.02
832.771	65.92
833.071	66.02
833.371	65.83
833.671	65.88
833.971	66.14
834.27	65.9
834.57	65.91
834.869	65.89
835.169	66.13
835.468	66.19
835.768	66.16
836.067	66.46
836.367	66.4
836.666	66.33
836.965	66.38
837.264	66.34
837.563	66.6
837.862	67.07
838.161	67.36
838.46	67.87
838.759	68.22
839.058	68.88
839.356	69.29
839.655	70.13
839.954	70.77
840.252	70.96
840.551	71.89
840.849	71.84
841.148	72.12
841.446	72.55
841.744	72.91
842.043	72.95
842.341	73.09
842.639	72.95
842.937	73.3
843.235	73.97
843.533	74.66
843.831	75.31
844.129	76.24
844.427	77.36
844.724	77.79
845.022	77.85
845.32	77.81
845.617	78.94
845.915	78.58
846.212	78.53
846.51	79.15
846.807	79.38
847.104	79.64
847.402	80.04
847.699	79.7
847.996	78.65
848.293	79.61
848.59	79.25
848.887	79.39
849.184	79.29
849.481	78.74
849.778	79.47
850.074	78.87
850.371	78.2
850.668	77.57
850.964	76.97
851.261	77.2
851.557	77.48
851.854	77.97
852.15	78.6
852.446	79.06
852.743	78.27
853.039	78.41
853.335	78.9
853.631	78.92
853.927	78.96
854.223	79.58
854.519	79.26
854.815	79.68
855.111	80.06
855.406	80.74
855.702	81.64
855.998	80.99
856.293	82.26
856.589	82.64
856.884	82.76
857.18	83.13
857.475	83.55
857.77	83.56
858.066	82.4
858.361	82.69
858.656	82.59
858.951	83.51
859.246	84.12
859.541	84.24
859.836	84.53
860.131	85.2
860.426	85.91
860.72	85.98
861.015	85.76
861.31	85.52
861.604	85.24
861.899	85.11
862.193	84.64
862.487	83.69
862.782	84.67
863.076	84.86
863.37	85.44
863.664	85.41
863.959	85.8
864.253	85.34
864.547	84.55
864.841	83.92
865.135	83.2
865.428	82.38
865.722	81.86
866.016	82.17
866.31	81.91
866.603	80.59
866.897	79.93
867.19	79.78
867.484	80.81
867.777	80.91
868.07	80.85
868.364	80.96
868.657	81.02
868.95	80.02
869.243	81.17
869.536	80.58
869.829	80.36
870.122	80.25
870.415	80.08
870.708	80.5
871	80.53
871.293	81.12
871.586	81.37
871.878	81.04
872.171	80.6
872.463	81.05
872.756	82.37
873.048	81.67
873.341	81.83
873.633	80.96
873.925	80.83
874.217	80.77
874.509	80.54
874.801	80.87
875.093	80.67
875.385	78.41
875.677	78.29
875.969	77.7
