Data from pcis_c_m1_p4_Reflection_2.txt Node
Date: Wed Jul 12 17:17:24 ART 2017
User: rodoncho
Spectrometer: USB2E3644
Trigger mode: 4
Integration Time (sec): 6.000000E-2
Scans to average: 10
Electric dark correction enabled: true
Nonlinearity correction enabled: false
Boxcar width: 10
XAxis mode: Wavelengths
Number of Pixels in Spectrum: 2048
>>>>>Begin Spectral Data<<<<<
178.315	697.73
178.696	-100
179.076	-15.93
179.457	376.47
179.838	146.43
180.218	185.37
180.599	31.6
180.979	-156.25
181.36	36.27
181.74	62.37
182.121	28.18
182.501	80.91
182.881	87.8
183.262	86
183.642	47.09
184.022	92.19
184.402	95.6
184.783	84.36
185.163	100.19
185.543	111.2
185.923	141.89
186.303	152.51
186.683	161.01
187.063	169.34
187.443	185.92
187.823	178.86
188.203	172.32
188.583	181.4
188.963	171.29
189.343	154.89
189.723	153.42
190.102	152.02
190.482	148.96
190.862	146.24
191.242	150.5
191.621	150.64
192.001	149.41
192.38	146.93
192.76	148.21
193.14	148.77
193.519	146.36
193.898	137.23
194.278	131.44
194.657	125.83
195.037	122.17
195.416	119.63
195.795	120.07
196.175	118.67
196.554	115.86
196.933	113.46
197.312	113.04
197.692	112.49
198.071	111.27
198.45	109.58
198.829	110.3
199.208	108.81
199.587	107.57
199.966	110.46
200.345	111.02
200.724	108.61
201.103	107
201.482	105.5
201.86	105.53
202.239	105.57
202.618	106.3
202.997	106.83
203.375	106.74
203.754	104.98
204.133	105.42
204.511	106.23
204.89	107.7
205.269	108.41
205.647	107.73
206.026	108.63
206.404	110.31
206.782	109.63
207.161	108.27
207.539	107.23
207.918	105.59
208.296	106.3
208.674	108.02
209.052	110
209.431	111.64
209.809	112.78
210.187	112.73
210.565	111.97
210.943	112.08
211.321	112
211.699	113.41
212.077	113.22
212.455	112.15
212.833	111.45
213.211	111.65
213.589	111.22
213.967	109.82
214.345	108.93
214.722	108.83
215.1	110.61
215.478	110.62
215.855	110.29
216.233	110.12
216.611	109.67
216.988	108.27
217.366	107.12
217.743	107.44
218.121	108.06
218.498	109.11
218.876	108.88
219.253	110.1
219.631	109.61
220.008	110.92
220.385	111.97
220.762	112.04
221.14	110.8
221.517	111.18
221.894	111.2
222.271	112.22
222.648	113.73
223.025	113.08
223.402	114.21
223.78	116.51
224.157	117.65
224.533	117.88
224.91	117.75
225.287	119.12
225.664	118.26
226.041	116.89
226.418	115.83
226.795	116.49
227.171	116.06
227.548	117.27
227.925	117.12
228.301	118.2
228.678	118.96
229.055	119.73
229.431	120.99
229.808	122.6
230.184	121.45
230.561	120.06
230.937	120.83
231.313	122.25
231.69	122.86
232.066	121.96
232.442	122.03
232.819	120.95
233.195	119.58
233.571	119.16
233.947	119.69
234.323	119.51
234.699	120.21
235.075	120.71
235.451	120.63
235.827	120.94
236.203	120.63
236.579	121.12
236.955	123.09
237.331	124.1
237.707	125.53
238.083	127.87
238.459	131.17
238.834	135.38
239.21	139.36
239.586	142.56
239.961	146.72
240.337	151.57
240.713	157.86
241.088	161.25
241.464	165.03
241.839	171.01
242.215	180.77
242.59	191.12
242.965	215.4
243.341	260.41
243.716	340.44
244.091	482.74
244.467	753.79
244.842	1268.26
245.217	2661.81
245.592	4230.6
245.967	8859.82
246.343	15739.06
246.718	6818.24
247.093	5099.49
247.468	6712.84
247.843	7397.79
248.218	-14839.71
248.593	-3005.03
248.967	-1303.45
249.342	-1084.95
249.717	-1124.24
250.092	-1082.31
250.467	-1322.04
250.841	-3352.27
251.216	2353.62
251.591	873.87
251.965	571.67
252.34	437.54
252.714	393.37
253.089	367.02
253.463	361.28
253.838	365.84
254.212	372.24
254.587	401.19
254.961	467.67
255.335	629.79
255.71	1614.49
256.084	-1551.09
256.458	-499.13
256.832	-312.56
257.206	-247.83
257.581	-219.88
257.955	-210.21
258.329	-193.91
258.703	-176.12
259.077	-159.63
259.451	-150.94
259.825	-142.6
260.199	-136.96
260.572	-134.03
260.946	-129.51
261.32	-126.7
261.694	-123.06
262.068	-120.53
262.441	-119.45
262.815	-117.9
263.189	-118.93
263.562	-124.82
263.936	-142.06
264.309	-167.71
264.683	-198.79
265.056	-214.88
265.43	-217.26
265.803	-210.31
266.176	-203.39
266.55	-201.86
266.923	-200.63
267.296	-193.21
267.67	-184.72
268.043	-169.46
268.416	-152.16
268.789	-137.14
269.162	-124.09
269.535	-114.51
269.908	-109.05
270.281	-104.5
270.654	-102.71
271.027	-103.7
271.4	-106.57
271.773	-108.15
272.146	-108.11
272.519	-104.29
272.891	-100.48
273.264	-99.9
273.637	-99.58
274.01	-100.16
274.382	-99.46
274.755	-98.2
275.127	-97.95
275.5	-97.69
275.872	-97.54
276.245	-99.32
276.617	-102.77
276.99	-108.41
277.362	-112.55
277.734	-113.94
278.107	-113.05
278.479	-108.92
278.851	-103.63
279.223	-98.63
279.596	-95.88
279.968	-93.74
280.34	-94.34
280.712	-93.2
281.084	-88.93
281.456	-82.94
281.828	-76.81
282.2	-71.1
282.572	-66.72
282.944	-63.13
283.315	-62.05
283.687	-61.61
284.059	-60.97
284.431	-60.2
284.802	-58.69
285.174	-56.59
285.546	-54.92
285.917	-54.11
286.289	-53.46
286.66	-52.79
287.032	-53.08
287.403	-52.51
287.775	-51.97
288.146	-51.24
288.518	-50.97
288.889	-50.98
289.26	-52.17
289.632	-53.86
290.003	-55.18
290.374	-56.77
290.745	-57.97
291.116	-57.23
291.487	-56.1
291.858	-54.66
292.229	-52.92
292.6	-51.34
292.971	-50.09
293.342	-47.71
293.713	-45.2
294.084	-43.48
294.455	-42.59
294.826	-41.35
295.196	-40.83
295.567	-40.62
295.938	-40.32
296.308	-40.44
296.679	-39.89
297.05	-38.95
297.42	-37.69
297.791	-37.06
298.161	-36.13
298.532	-34.87
298.902	-34.1
299.272	-33.25
299.643	-32.93
300.013	-32.76
300.383	-32.52
300.754	-32.12
301.124	-32.39
301.494	-32.8
301.864	-33.32
302.234	-33.4
302.604	-33.46
302.974	-33.15
303.344	-32.98
303.714	-32.92
304.084	-32.07
304.454	-31.36
304.824	-30.31
305.194	-29.77
305.563	-28.84
305.933	-27.83
306.303	-26.66
306.673	-26.17
307.042	-25.69
307.412	-24.37
307.781	-23.42
308.151	-22.54
308.521	-21.97
308.89	-21.52
309.259	-21.13
309.629	-20.45
309.998	-20.07
310.368	-20.15
310.737	-20.1
311.106	-19.71
311.475	-19.01
311.845	-18.62
312.214	-18.21
312.583	-18.08
312.952	-17.8
313.321	-17.88
313.69	-17.91
314.059	-18.44
314.428	-18.72
314.797	-19
315.166	-19.88
315.535	-20.45
315.904	-20.85
316.272	-21.29
316.641	-21.72
317.01	-21.72
317.379	-22.17
317.747	-22.14
318.116	-21.52
318.484	-20.94
318.853	-20.27
319.221	-19.94
319.59	-19.61
319.958	-19.48
320.327	-19.05
320.695	-18.63
321.063	-18.15
321.432	-17.51
321.8	-16.86
322.168	-15.88
322.536	-14.92
322.905	-13.94
323.273	-13.3
323.641	-12.93
324.009	-12.93
324.377	-12.66
324.745	-12.47
325.113	-12.03
325.481	-11.49
325.849	-11.15
326.216	-10.74
326.584	-10.32
326.952	-10.08
327.32	-9.82
327.687	-9.48
328.055	-9.14
328.423	-8.97
328.79	-8.79
329.158	-8.76
329.525	-8.42
329.893	-8.17
330.26	-8.11
330.628	-8.22
330.995	-7.95
331.362	-7.44
331.73	-6.64
332.097	-6.1
332.464	-5.68
332.831	-5.21
333.199	-4.91
333.566	-4.49
333.933	-4.43
334.3	-4.33
334.667	-4.07
335.034	-4
335.401	-3.81
335.768	-3.72
336.135	-3.41
336.502	-3.23
336.868	-2.96
337.235	-2.83
337.602	-2.6
337.969	-2.37
338.335	-1.93
338.702	-1.61
339.069	-1.41
339.435	-1.31
339.802	-1.34
340.168	-1.19
340.535	-0.99
340.901	-0.87
341.267	-0.61
341.634	-0.17
342	0.08
342.366	0.2
342.733	0.53
343.099	0.78
343.465	0.97
343.831	1.09
344.197	1.25
344.563	1.39
344.929	1.63
345.295	1.81
345.661	1.97
346.027	2.05
346.393	2.18
346.759	2.17
347.125	2.24
347.491	2.48
347.856	2.63
348.222	2.66
348.588	2.79
348.953	2.75
349.319	2.82
349.684	2.83
350.05	2.98
350.415	3.16
350.781	3.3
351.146	3.62
351.512	3.74
351.877	3.9
352.242	4.03
352.608	4.05
352.973	4.1
353.338	4.23
353.703	4.32
354.068	4.44
354.433	4.64
354.798	4.9
355.164	5
355.528	5.05
355.893	5.21
356.258	5.41
356.623	5.56
356.988	5.66
357.353	5.89
357.718	6.06
358.082	6.13
358.447	6.07
358.812	6.02
359.176	6.07
359.541	6.12
359.905	6.21
360.27	6.3
360.634	6.38
360.999	6.43
361.363	6.55
361.728	6.52
362.092	6.56
362.456	6.55
362.821	6.66
363.185	6.71
363.549	6.7
363.913	6.66
364.277	6.65
364.641	6.7
365.005	6.71
365.369	6.74
365.733	6.83
366.097	7.02
366.461	7.08
366.825	7.16
367.189	7.28
367.553	7.39
367.916	7.53
368.28	7.69
368.644	7.87
369.007	7.99
369.371	8.14
369.734	8.26
370.098	8.38
370.461	8.55
370.825	8.68
371.188	8.89
371.552	8.99
371.915	9.11
372.278	9.27
372.642	9.45
373.005	9.54
373.368	9.6
373.731	9.7
374.094	9.81
374.457	9.88
374.82	9.96
375.183	10.01
375.546	10.07
375.909	10.12
376.272	10.14
376.635	10.17
376.998	10.22
377.361	10.22
377.723	10.27
378.086	10.27
378.449	10.36
378.811	10.4
379.174	10.49
379.537	10.58
379.899	10.59
380.262	10.61
380.624	10.6
380.987	10.64
381.349	10.63
381.711	10.66
382.074	10.72
382.436	10.79
382.798	10.91
383.16	10.87
383.522	10.85
383.884	10.91
384.247	10.97
384.609	11.01
384.971	11.11
385.333	11.13
385.695	11.16
386.056	11.15
386.418	11.11
386.78	11.13
387.142	11.12
387.504	11.16
387.865	11.13
388.227	11.12
388.589	11.15
388.95	11.17
389.312	11.18
389.673	11.22
390.035	11.2
390.396	11.12
390.758	11.14
391.119	11.16
391.48	11.12
391.842	11.1
392.203	11.1
392.564	11.12
392.925	11.11
393.286	11.11
393.648	11.13
394.009	11.14
394.37	11.11
394.731	11.08
395.092	11.03
395.452	11.05
395.813	11.12
396.174	11.09
396.535	11.07
396.896	11.09
397.257	11.09
397.617	11.1
397.978	11.13
398.338	11.15
398.699	11.16
399.06	11.17
399.42	11.12
399.781	11.11
400.141	11.03
400.501	11.02
400.862	11
401.222	10.97
401.582	10.99
401.943	10.97
402.303	10.99
402.663	10.99
403.023	10.98
403.383	10.91
403.743	10.9
404.103	10.92
404.463	10.9
404.823	10.88
405.183	10.83
405.543	10.82
405.903	10.82
406.262	10.79
406.622	10.8
406.982	10.8
407.342	10.76
407.701	10.75
408.061	10.69
408.42	10.7
408.78	10.65
409.139	10.61
409.499	10.59
409.858	10.56
410.217	10.52
410.577	10.49
410.936	10.48
411.295	10.45
411.655	10.38
412.014	10.31
412.373	10.27
412.732	10.23
413.091	10.16
413.45	10.09
413.809	10.06
414.168	9.97
414.527	9.9
414.886	9.84
415.245	9.76
415.603	9.73
415.962	9.63
416.321	9.59
416.679	9.53
417.038	9.47
417.397	9.38
417.755	9.31
418.114	9.25
418.472	9.19
418.831	9.13
419.189	9.09
419.547	9.04
419.906	8.99
420.264	8.93
420.622	8.88
420.981	8.82
421.339	8.76
421.697	8.73
422.055	8.69
422.413	8.68
422.771	8.67
423.129	8.65
423.487	8.65
423.845	8.64
424.203	8.63
424.56	8.61
424.918	8.62
425.276	8.64
425.634	8.65
425.991	8.64
426.349	8.65
426.707	8.65
427.064	8.64
427.422	8.65
427.779	8.67
428.137	8.68
428.494	8.71
428.851	8.72
429.209	8.68
429.566	8.67
429.923	8.64
430.28	8.6
430.637	8.59
430.995	8.53
431.352	8.5
431.709	8.47
432.066	8.46
432.423	8.43
432.78	8.41
433.137	8.39
433.493	8.37
433.85	8.36
434.207	8.33
434.564	8.32
434.92	8.3
435.277	8.26
435.634	8.22
435.99	8.18
436.347	8.13
436.703	8.11
437.06	8.08
437.416	8.07
437.773	8.05
438.129	8.02
438.485	8.01
438.841	7.99
439.198	7.99
439.554	7.97
439.91	7.96
440.266	7.95
440.622	7.92
440.978	7.92
441.334	7.88
441.69	7.87
442.046	7.82
442.402	7.76
442.758	7.71
443.113	7.69
443.469	7.67
443.825	7.64
444.181	7.64
444.536	7.63
444.892	7.6
445.247	7.57
445.603	7.56
445.958	7.56
446.314	7.54
446.669	7.53
447.025	7.51
447.38	7.49
447.735	7.48
448.09	7.48
448.446	7.48
448.801	7.47
449.156	7.46
449.511	7.49
449.866	7.53
450.221	7.57
450.576	7.59
450.931	7.61
451.286	7.62
451.641	7.62
451.995	7.62
452.35	7.63
452.705	7.64
453.06	7.64
453.414	7.64
453.769	7.65
454.123	7.65
454.478	7.64
454.832	7.63
455.187	7.62
455.541	7.56
455.896	7.5
456.25	7.45
456.604	7.4
456.958	7.35
457.313	7.33
457.667	7.29
458.021	7.26
458.375	7.28
458.729	7.29
459.083	7.3
459.437	7.28
459.791	7.28
460.145	7.28
460.499	7.28
460.852	7.26
461.206	7.25
461.56	7.24
461.914	7.24
462.267	7.23
462.621	7.22
462.974	7.24
463.328	7.24
463.681	7.26
464.035	7.28
464.388	7.3
464.742	7.31
465.095	7.32
465.448	7.34
465.801	7.31
466.155	7.31
466.508	7.28
466.861	7.29
467.214	7.27
467.567	7.27
467.92	7.27
468.273	7.25
468.626	7.23
468.979	7.22
469.332	7.2
469.684	7.19
470.037	7.18
470.39	7.17
470.743	7.2
471.095	7.22
471.448	7.24
471.8	7.25
472.153	7.27
472.505	7.27
472.858	7.26
473.21	7.26
473.562	7.25
473.915	7.27
474.267	7.26
474.619	7.27
474.971	7.27
475.324	7.24
475.676	7.25
476.028	7.26
476.38	7.26
476.732	7.25
477.084	7.26
477.436	7.25
477.787	7.23
478.139	7.21
478.491	7.18
478.843	7.14
479.195	7.1
479.546	7.01
479.898	6.92
480.249	6.83
480.601	6.74
480.952	6.69
481.304	6.65
481.655	6.61
482.007	6.58
482.358	6.56
482.709	6.55
483.061	6.54
483.412	6.53
483.763	6.51
484.114	6.49
484.465	6.46
484.816	6.45
485.167	6.44
485.518	6.43
485.869	6.42
486.22	6.43
486.571	6.43
486.922	6.45
487.272	6.45
487.623	6.47
487.974	6.49
488.324	6.5
488.675	6.51
489.025	6.52
489.376	6.54
489.726	6.55
490.077	6.56
490.427	6.57
490.778	6.58
491.128	6.62
491.478	6.65
491.828	6.7
492.179	6.73
492.529	6.77
492.879	6.8
493.229	6.81
493.579	6.82
493.929	6.81
494.279	6.81
494.629	6.82
494.979	6.86
495.328	6.88
495.678	6.92
496.028	6.96
496.378	6.99
496.727	7.02
497.077	7.04
497.426	7.05
497.776	7.05
498.125	7.06
498.475	7.04
498.824	7.05
499.174	7.04
499.523	7.04
499.872	7.03
500.221	7.04
500.571	7.06
500.92	7.07
501.269	7.08
501.618	7.08
501.967	7.11
502.316	7.12
502.665	7.13
503.014	7.15
503.363	7.16
503.711	7.15
504.06	7.15
504.409	7.14
504.758	7.12
505.106	7.12
505.455	7.11
505.803	7.1
506.152	7.08
506.5	7.09
506.849	7.09
507.197	7.1
507.546	7.1
507.894	7.11
508.242	7.11
508.59	7.1
508.939	7.12
509.287	7.11
509.635	7.13
509.983	7.14
510.331	7.13
510.679	7.15
511.027	7.15
511.375	7.15
511.723	7.17
512.07	7.21
512.418	7.22
512.766	7.26
513.114	7.3
513.461	7.33
513.809	7.33
514.156	7.36
514.504	7.35
514.851	7.34
515.199	7.35
515.546	7.34
515.893	7.35
516.241	7.33
516.588	7.35
516.935	7.34
517.282	7.35
517.63	7.36
517.977	7.36
518.324	7.39
518.671	7.41
519.018	7.41
519.365	7.41
519.711	7.44
520.058	7.42
520.405	7.41
520.752	7.41
521.099	7.42
521.445	7.43
521.792	7.44
522.138	7.46
522.485	7.47
522.832	7.5
523.178	7.52
523.524	7.55
523.871	7.56
524.217	7.56
524.563	7.55
524.91	7.52
525.256	7.47
525.602	7.43
525.948	7.4
526.294	7.37
526.64	7.36
526.986	7.36
527.332	7.36
527.678	7.36
528.024	7.37
528.37	7.38
528.716	7.37
529.061	7.38
529.407	7.38
529.753	7.38
530.098	7.37
530.444	7.38
530.789	7.37
531.135	7.37
531.48	7.39
531.826	7.41
532.171	7.43
532.516	7.49
532.862	7.53
533.207	7.57
533.552	7.63
533.897	7.66
534.242	7.68
534.587	7.7
534.932	7.73
535.277	7.73
535.622	7.75
535.967	7.78
536.312	7.81
536.657	7.84
537.001	7.88
537.346	7.92
537.691	7.94
538.035	7.97
538.38	7.97
538.724	7.97
539.069	7.96
539.413	7.96
539.758	7.96
540.102	7.98
540.446	7.99
540.791	7.99
541.135	8.02
541.479	8.03
541.823	8.06
542.167	8.07
542.512	8.09
542.856	8.09
543.2	8.1
543.543	8.11
543.887	8.12
544.231	8.13
544.575	8.16
544.919	8.19
545.262	8.23
545.606	8.27
545.95	8.31
546.293	8.36
546.637	8.41
546.98	8.46
547.324	8.49
547.667	8.54
548.011	8.59
548.354	8.62
548.697	8.66
549.04	8.68
549.384	8.74
549.727	8.77
550.07	8.82
550.413	8.86
550.756	8.92
551.099	8.97
551.442	9.01
551.785	9.04
552.128	9.1
552.47	9.14
552.813	9.2
553.156	9.23
553.499	9.28
553.841	9.3
554.184	9.34
554.526	9.4
554.869	9.43
555.211	9.43
555.554	9.46
555.896	9.5
556.238	9.53
556.581	9.58
556.923	9.63
557.265	9.7
557.607	9.76
557.949	9.8
558.291	9.84
558.633	9.89
558.975	9.94
559.317	9.98
559.659	10.02
560.001	10.08
560.343	10.15
560.685	10.18
561.026	10.25
561.368	10.29
561.71	10.31
562.051	10.36
562.393	10.47
562.734	10.55
563.076	10.62
563.417	10.72
563.759	10.77
564.1	10.85
564.441	10.91
564.782	10.99
565.124	11.06
565.465	11.15
565.806	11.25
566.147	11.34
566.488	11.42
566.829	11.49
567.17	11.56
567.511	11.65
567.851	11.77
568.192	11.89
568.533	12.01
568.874	12.16
569.214	12.29
569.555	12.39
569.895	12.52
570.236	12.65
570.576	12.77
570.917	12.9
571.257	13
571.598	13.09
571.938	13.22
572.278	13.36
572.618	13.47
572.959	13.57
573.299	13.67
573.639	13.79
573.979	13.93
574.319	14.06
574.659	14.17
574.999	14.28
575.339	14.38
575.678	14.51
576.018	14.58
576.358	14.69
576.698	14.84
577.037	14.93
577.377	15.06
577.716	15.2
578.056	15.37
578.395	15.55
578.735	15.74
579.074	15.87
579.413	16.02
579.753	16.19
580.092	16.37
580.431	16.55
580.77	16.72
581.109	16.85
581.448	17.01
581.787	17.17
582.126	17.34
582.465	17.51
582.804	17.64
583.143	17.86
583.482	18.02
583.82	18.16
584.159	18.33
584.498	18.47
584.836	18.62
585.175	18.75
585.514	18.9
585.852	19.06
586.19	19.27
586.529	19.42
586.867	19.59
587.205	19.72
587.544	19.88
587.882	20.03
588.22	20.19
588.558	20.31
588.896	20.42
589.234	20.57
589.572	20.71
589.91	20.9
590.248	21.04
590.586	21.21
590.924	21.35
591.262	21.49
591.599	21.64
591.937	21.74
592.275	21.87
592.612	21.97
592.95	22.11
593.287	22.27
593.625	22.48
593.962	22.61
594.299	22.77
594.637	22.9
594.974	23.03
595.311	23.14
595.648	23.29
595.985	23.39
596.322	23.49
596.659	23.59
596.996	23.64
597.333	23.68
597.67	23.77
598.007	23.81
598.344	23.92
598.681	24
599.017	24.1
599.354	24.19
599.691	24.3
600.027	24.41
600.364	24.5
600.7	24.57
601.037	24.69
601.373	24.81
601.71	24.95
602.046	25.07
602.382	25.14
602.718	25.22
603.054	25.3
603.391	25.36
603.727	25.44
604.063	25.48
604.399	25.56
604.735	25.61
605.071	25.72
605.406	25.82
605.742	25.91
606.078	26.02
606.414	26.14
606.749	26.21
607.085	26.28
607.421	26.32
607.756	26.37
608.092	26.4
608.427	26.41
608.762	26.4
609.098	26.39
609.433	26.44
609.768	26.47
610.104	26.55
610.439	26.59
610.774	26.58
611.109	26.68
611.444	26.68
611.779	26.73
612.114	26.73
612.449	26.69
612.784	26.72
613.118	26.73
613.453	26.68
613.788	26.64
614.123	26.67
614.457	26.72
614.792	26.77
615.126	26.81
615.461	26.84
615.795	26.9
616.13	27
616.464	27.04
616.798	27.11
617.132	27.13
617.467	27.21
617.801	27.2
618.135	27.19
618.469	27.28
618.803	27.31
619.137	27.35
619.471	27.41
619.805	27.38
620.139	27.37
620.472	27.41
620.806	27.47
621.14	27.44
621.473	27.46
621.807	27.46
622.141	27.46
622.474	27.53
622.808	27.56
623.141	27.59
623.474	27.67
623.808	27.71
624.141	27.73
624.474	27.7
624.807	27.83
625.141	27.85
625.474	27.86
625.807	27.84
626.14	27.89
626.473	27.91
626.806	27.94
627.138	27.93
627.471	27.91
627.804	27.95
628.137	27.99
628.469	27.98
628.802	28.02
629.135	28.02
629.467	28.02
629.8	27.98
630.132	27.99
630.465	27.96
630.797	27.94
631.129	27.96
631.461	28.01
631.794	28
632.126	27.98
632.458	28
632.79	28.05
633.122	28.07
633.454	28.1
633.786	28.09
634.118	28.11
634.45	28.16
634.781	28.14
635.113	28.14
635.445	28.08
635.777	28.04
636.108	28.07
636.44	28.06
636.771	28.11
637.103	28.09
637.434	28.1
637.765	28.13
638.097	28.06
638.428	28.02
638.759	27.99
639.09	28.02
639.422	28.04
639.753	28.07
640.084	28.1
640.415	28.09
640.746	28.12
641.077	28.13
641.407	28.12
641.738	28.11
642.069	28.11
642.4	28.17
642.73	28.21
643.061	28.23
643.392	28.3
643.722	28.35
644.053	28.39
644.383	28.43
644.713	28.42
645.044	28.46
645.374	28.44
645.704	28.4
646.034	28.42
646.365	28.45
646.695	28.4
647.025	28.35
647.355	28.34
647.685	28.32
648.015	28.39
648.344	28.47
648.674	28.49
649.004	28.57
649.334	28.6
649.663	28.61
649.993	28.66
650.323	28.62
650.652	28.58
650.982	28.56
651.311	28.48
651.64	28.45
651.97	28.48
652.299	28.55
652.628	28.63
652.958	28.63
653.287	28.64
653.616	28.7
653.945	28.72
654.274	28.74
654.603	28.76
654.932	28.74
655.261	28.76
655.589	28.83
655.918	28.84
656.247	28.92
656.576	28.98
656.904	29.03
657.233	29.1
657.561	29.1
657.89	29.12
658.218	29.15
658.547	29.2
658.875	29.21
659.203	29.21
659.532	29.13
659.86	29.15
660.188	29.14
660.516	29.11
660.844	29.09
661.172	29.09
661.5	29.11
661.828	29.09
662.156	29.05
662.484	29.05
662.811	29.01
663.139	28.96
663.467	28.92
663.794	28.84
664.122	28.77
664.45	28.76
664.777	28.72
665.104	28.81
665.432	28.7
665.759	28.66
666.086	28.68
666.414	28.75
666.741	28.78
667.068	28.73
667.395	28.76
667.722	28.75
668.049	28.78
668.376	28.74
668.703	28.73
669.03	28.76
669.357	28.68
669.683	28.64
670.01	28.61
670.337	28.64
670.663	28.65
670.99	28.68
671.317	28.66
671.643	28.71
671.969	28.67
672.296	28.79
672.622	28.8
672.948	28.73
673.275	28.67
673.601	28.6
673.927	28.58
674.253	28.6
674.579	28.65
674.905	28.67
675.231	28.75
675.557	28.79
675.883	28.73
676.209	28.88
676.534	28.93
676.86	29
677.186	29.01
677.511	29.06
677.837	29.02
678.162	29.1
678.488	29.11
678.813	29.14
679.139	29.11
679.464	29.15
679.789	29.2
680.114	29.25
680.44	29.38
680.765	29.43
681.09	29.36
681.415	29.35
681.74	29.34
682.065	29.29
682.39	29.3
682.714	29.32
683.039	29.28
683.364	29.29
683.689	29.2
684.013	29.21
684.338	29.17
684.662	29.23
684.987	29.21
685.311	29.23
685.636	29.19
685.96	29.15
686.284	29.09
686.608	29.11
686.933	29.09
687.257	28.94
687.581	28.9
687.905	28.95
688.229	28.89
688.553	28.89
688.877	28.89
689.201	28.89
689.524	28.86
689.848	28.78
690.172	28.7
690.496	28.75
690.819	28.76
691.143	28.76
691.466	28.78
691.79	28.69
692.113	28.51
692.436	28.42
692.76	28.47
693.083	28.48
693.406	28.44
693.729	28.37
694.053	28.44
694.376	28.5
694.699	28.55
695.022	28.69
695.344	28.82
695.667	28.91
695.99	28.99
696.313	29.14
696.636	29.24
696.958	29.31
697.281	29.34
697.604	29.3
697.926	29.36
698.249	29.35
698.571	29.38
698.893	29.42
699.216	29.51
699.538	29.45
699.86	29.38
700.182	29.38
700.504	29.43
700.827	29.4
701.149	29.37
701.471	29.31
701.793	29.17
702.114	29.05
702.436	28.93
702.758	28.82
703.08	28.63
703.401	28.52
703.723	28.45
704.045	28.4
704.366	28.42
704.688	28.3
705.009	28.18
705.331	28.26
705.652	28.4
705.973	28.34
706.294	28.45
706.616	28.59
706.937	28.53
707.258	28.55
707.579	28.52
707.9	28.58
708.221	28.68
708.542	28.77
708.863	28.81
709.183	28.75
709.504	28.72
709.825	28.77
710.145	28.8
710.466	28.88
710.787	28.86
711.107	28.79
711.427	28.77
711.748	28.81
712.068	28.86
712.388	28.82
712.709	28.8
713.029	28.8
713.349	28.79
713.669	28.93
713.989	29.06
714.309	29.14
714.629	29.13
714.949	29.13
715.269	29.03
715.589	28.99
715.908	29.12
716.228	29.17
716.548	29.2
716.867	29.24
717.187	29.21
717.506	29.22
717.826	29.27
718.145	29.29
718.465	29.29
718.784	29.31
719.103	29.34
719.422	29.47
719.741	29.5
720.061	29.59
720.38	29.54
720.699	29.45
721.018	29.43
721.336	29.48
721.655	29.47
721.974	29.6
722.293	29.77
722.612	29.79
722.93	29.9
723.249	30.02
723.567	30.03
723.886	30.2
724.204	30.34
724.523	30.51
724.841	30.6
725.159	30.73
725.477	30.85
725.796	31.1
726.114	31.22
726.432	31.28
726.75	31.39
727.068	31.51
727.386	31.63
727.704	31.8
728.022	31.97
728.339	32.11
728.657	32.28
728.975	32.33
729.292	32.41
729.61	32.55
729.928	32.58
730.245	32.66
730.562	32.62
730.88	32.78
731.197	32.84
731.514	32.96
731.832	33.15
732.149	33.13
732.466	33.12
732.783	33.2
733.1	33.29
733.417	33.36
733.734	33.37
734.051	33.45
734.368	33.6
734.684	33.64
735.001	33.62
735.318	33.74
735.634	33.71
735.951	33.9
736.268	34
736.584	34.15
736.9	34.31
737.217	34.4
737.533	34.43
737.849	34.56
738.166	34.79
738.482	34.72
738.798	34.78
739.114	34.83
739.43	35.01
739.746	35.15
740.062	35.14
740.378	35.45
740.693	35.54
741.009	35.57
741.325	35.72
741.641	35.93
741.956	36
742.272	36.16
742.587	36.33
742.903	36.46
743.218	36.5
743.533	36.53
743.849	36.88
744.164	36.98
744.479	36.99
744.794	37.03
745.109	37.23
745.424	37.38
745.739	37.54
746.054	37.46
746.369	37.44
746.684	37.53
746.999	37.36
747.313	37.37
747.628	37.33
747.943	37.48
748.257	37.63
748.572	37.62
748.886	37.63
749.201	37.54
749.515	37.52
749.829	37.64
750.144	37.8
750.458	37.77
750.772	37.87
751.086	38.19
751.4	38.08
751.714	38
752.028	38.16
752.342	38.2
752.656	38.34
752.97	38.48
753.284	38.58
753.597	38.85
753.911	38.94
754.225	39.01
754.538	38.88
754.852	38.74
755.165	38.87
755.478	39.09
755.792	39.28
756.105	39.21
756.418	39.16
756.731	39.11
757.045	39.11
757.358	39.17
757.671	38.91
757.984	39.05
758.297	39.35
758.609	39.4
758.922	39.56
759.235	39.57
759.548	39.53
759.86	39.63
760.173	39.45
760.486	39.36
760.798	39.3
761.111	39.38
761.423	39.45
761.735	39.37
762.048	39.31
762.36	39.27
762.672	39.48
762.984	39.59
763.296	39.75
763.608	39.94
763.92	39.85
764.232	40.01
764.544	40.1
764.856	40.1
765.168	40.16
765.48	40.15
765.791	40.22
766.103	40.4
766.414	40.45
766.726	40.59
767.037	40.78
767.349	41.04
767.66	41.22
767.972	41.59
768.283	42
768.594	42.26
768.905	42.57
769.216	42.57
769.527	42.72
769.838	43.01
770.149	43.1
770.46	43.45
770.771	43.59
771.082	43.74
771.393	44.01
771.703	44.21
772.014	44.39
772.324	44.39
772.635	44.36
772.945	44.5
773.256	44.71
773.566	45.05
773.877	45.41
774.187	45.41
774.497	45.21
774.807	45.18
775.117	45.35
775.427	45.68
775.737	45.89
776.047	46
776.357	45.78
776.667	45.85
776.977	45.95
777.287	46.19
777.596	46.04
777.906	45.99
778.216	45.77
778.525	45.67
778.835	45.86
779.144	45.99
779.453	45.87
779.763	46.08
780.072	46.09
780.381	45.98
780.69	46.24
781	46.46
781.309	46.55
781.618	46.68
781.927	46.54
782.235	46.79
782.544	47.1
782.853	47.25
783.162	46.9
783.471	46.79
783.779	46.64
784.088	47.12
784.396	47.28
784.705	47.4
785.013	47.54
785.322	47.5
785.63	47.44
785.938	47.79
786.246	47.73
786.554	47.75
786.863	47.72
787.171	47.82
787.479	48.02
787.787	48.35
788.094	48.28
788.402	48.1
788.71	47.97
789.018	47.85
789.326	47.98
789.633	48.59
789.941	48.63
790.248	48.49
790.556	48.23
790.863	48.19
791.171	48.33
791.478	48.49
791.785	48.85
792.092	49.15
792.399	49.29
792.707	49.62
793.014	49.61
793.321	49.79
793.628	49.42
793.934	49.12
794.241	48.9
794.548	48.89
794.855	48.9
795.161	48.67
795.468	48.57
795.775	48.69
796.081	48.39
796.388	48.45
796.694	48.9
797	49.23
797.307	49.27
797.613	49.32
797.919	49.3
798.225	49.36
798.531	49.32
798.837	49.26
799.143	49.06
799.449	49.25
799.755	49.04
800.061	49.65
800.367	49.96
800.672	49.94
800.978	50.18
801.284	50.39
801.589	50.85
801.895	51.02
802.2	51.15
802.506	51.23
802.811	51.25
803.116	51.12
803.421	51.03
803.727	51.08
804.032	51.09
804.337	51.03
804.642	50.66
804.947	50.82
805.252	51.11
805.556	51.48
805.861	51.82
806.166	52.05
806.471	51.79
806.775	51.98
807.08	52.47
807.384	52.45
807.689	52.68
807.993	53.03
808.298	52.89
808.602	52.5
808.906	52.94
809.211	53.29
809.515	53.32
809.819	53.23
810.123	53.54
810.427	53.6
810.731	53.67
811.035	54.45
811.338	54.59
811.642	54.52
811.946	54.33
812.25	54.18
812.553	54.36
812.857	54.55
813.16	54.66
813.464	54.43
813.767	54.55
814.07	54.47
814.374	54.02
814.677	54.19
814.98	54.58
815.283	54.35
815.586	54.38
815.889	54.11
816.192	53.97
816.495	53.51
816.798	53.35
817.101	53.37
817.404	52.7
817.706	52.18
818.009	51.56
818.312	50.83
818.614	49.89
818.917	48.67
819.219	47.12
819.521	45.67
819.824	44.15
820.126	43.14
820.428	42.24
820.73	41.69
821.032	41.27
821.334	40.85
821.636	40.6
821.938	40.38
822.24	40.28
822.542	40.22
822.844	40.3
823.145	40.25
823.447	40.22
823.749	40.15
824.05	40.03
824.352	40.01
824.653	40.06
824.955	40.04
825.256	40.08
825.557	40.21
825.858	40.29
826.16	40.71
826.461	40.96
826.762	41.36
827.063	41.78
827.364	42.28
827.665	42.95
827.965	43.37
828.266	43.9
828.567	44.47
828.868	44.78
829.168	44.9
829.469	45.17
829.769	45.27
830.07	45.48
830.37	45.99
830.67	46.32
830.971	46.43
831.271	47.03
831.571	47.38
831.871	47.27
832.171	47.49
832.471	47.3
832.771	47.54
833.071	48
833.371	48.28
833.671	48.26
833.971	48.02
834.27	48.12
834.57	48.02
834.869	47.8
835.169	48.01
835.468	47.92
835.768	47.61
836.067	47.68
836.367	47.9
836.666	48.1
836.965	48.51
837.264	49.19
837.563	49.55
837.862	49.82
838.161	51.12
838.46	52.18
838.759	53.12
839.058	53.8
839.356	54.17
839.655	54.63
839.954	54.81
840.252	54.97
840.551	55.32
840.849	55.31
841.148	56
841.446	56.24
841.744	56.55
842.043	57.71
842.341	57.85
842.639	58.41
842.937	58.71
843.235	58.84
843.533	59.3
843.831	59.37
844.129	60.44
844.427	60.7
844.724	60.49
845.022	60.7
845.32	60.92
845.617	61.28
845.915	61.74
846.212	62.65
846.51	63.97
846.807	64.28
847.104	65.16
847.402	65.49
847.699	65.38
847.996	65.96
848.293	65.65
848.59	65.77
848.887	65.9
849.184	65.64
849.481	66.5
849.778	66.96
850.074	67.99
850.371	67.67
850.668	68.09
850.964	68.8
851.261	69.94
851.557	71.26
851.854	71.76
852.15	71.46
852.446	71.52
852.743	71.05
853.039	71.22
853.335	71.28
853.631	71.21
853.927	70.77
854.223	70.73
854.519	71.32
854.815	72.45
855.111	71.91
855.406	71.88
855.702	71.73
855.998	71.63
856.293	71.19
856.589	71.75
856.884	70.88
857.18	70.61
857.475	70.4
857.77	69.73
858.066	69.5
858.361	69.45
858.656	70.45
858.951	70.23
859.246	70.23
859.541	70.65
859.836	70.45
860.131	71.27
860.426	71.13
860.72	70.51
861.015	70.74
861.31	70.85
861.604	71.01
861.899	70.84
862.193	70.08
862.487	71.03
862.782	71.61
863.076	72.3
863.37	72.38
863.664	71.36
863.959	70.96
864.253	71.22
864.547	71.29
864.841	69.82
865.135	70.15
865.428	69.2
865.722	68.47
866.016	69.1
866.31	69.26
866.603	69.12
866.897	68.87
867.19	67.92
867.484	66.93
867.777	67.02
868.07	65.81
868.364	65.87
868.657	65.56
868.95	64.96
869.243	64.6
869.536	64.14
869.829	64.43
870.122	63.3
870.415	63.03
870.708	62.52
871	62.79
871.293	62.7
871.586	64.26
871.878	63.81
872.171	62.86
872.463	61.9
872.756	62.27
873.048	62.73
873.341	62.64
873.633	63.51
873.925	63.21
874.217	63.82
874.509	64.11
874.801	62.98
875.093	62.55
875.385	62.46
875.677	62.68
875.969	62.06
