Data from pcis_c_h1_p4_Reflection_2.txt Node
Date: Wed Jul 12 17:28:03 ART 2017
User: rodoncho
Spectrometer: USB2E3644
Trigger mode: 4
Integration Time (sec): 6.000000E-2
Scans to average: 10
Electric dark correction enabled: true
Nonlinearity correction enabled: false
Boxcar width: 10
XAxis mode: Wavelengths
Number of Pixels in Spectrum: 2048
>>>>>Begin Spectral Data<<<<<
178.315	100
178.696	107.14
179.076	130.57
179.457	117.65
179.838	151.43
180.218	192.31
180.599	-2900
180.979	184.21
181.36	-141.24
181.74	-428
182.121	363.16
182.501	89.95
182.881	104.32
183.262	72.88
183.642	204.35
184.022	190.41
184.402	153.1
184.783	120.51
185.163	121.58
185.543	121.2
185.923	135.47
186.303	131.83
186.683	138.35
187.063	137.73
187.443	135.13
187.823	130.37
188.203	127.33
188.583	126.17
188.963	128.92
189.343	109.87
189.723	106.9
190.102	112.58
190.482	112.33
190.862	115.11
191.242	117.51
191.621	124.55
192.001	127.68
192.38	124.51
192.76	124.49
193.14	120.26
193.519	118.85
193.898	114.99
194.278	111.17
194.657	111.09
195.037	116.33
195.416	115.74
195.795	116.54
196.175	117.74
196.554	119.71
196.933	116.79
197.312	117.15
197.692	114.85
198.071	114.19
198.45	116.6
198.829	117.57
199.208	116.08
199.587	113.82
199.966	113.5
200.345	112.78
200.724	111.57
201.103	111.39
201.482	111.57
201.86	113.98
202.239	115.61
202.618	114.07
202.997	110.78
203.375	111.33
203.754	111.74
204.133	110.24
204.511	107.35
204.89	108.19
205.269	109.72
205.647	112.82
206.026	112.95
206.404	112.07
206.782	111.12
207.161	111.63
207.539	109.22
207.918	106.3
208.296	105.3
208.674	105.56
209.052	106.64
209.431	107.01
209.809	106.59
210.187	106.31
210.565	106.13
210.943	107.52
211.321	108.3
211.699	108.34
212.077	109.55
212.455	111.3
212.833	111.54
213.211	110.67
213.589	109.83
213.967	109.5
214.345	109.77
214.722	108.72
215.1	108.39
215.478	110.42
215.855	112.38
216.233	114.33
216.611	115.35
216.988	114.88
217.366	115.08
217.743	115.11
218.121	115.33
218.498	114.92
218.876	113.09
219.253	112.19
219.631	112.95
220.008	112.68
220.385	112.55
220.762	111.57
221.14	111.98
221.517	111.76
221.894	113.51
222.271	115.14
222.648	116.62
223.025	116.14
223.402	115.12
223.78	114.9
224.157	115.91
224.533	116.23
224.91	115.46
225.287	114.35
225.664	114.73
226.041	116.17
226.418	116.85
226.795	116.95
227.171	116.81
227.548	116.55
227.925	116.14
228.301	115.85
228.678	116.55
229.055	117.32
229.431	118.42
229.808	117.38
230.184	115.86
230.561	115.67
230.937	116.46
231.313	117.55
231.69	116.81
232.066	116.55
232.442	116.7
232.819	117.4
233.195	118.49
233.571	118.75
233.947	117.5
234.323	116.9
234.699	117.35
235.075	117.7
235.451	118.57
235.827	120.29
236.203	120.96
236.579	122.03
236.955	122.36
237.331	123.85
237.707	126.65
238.083	128.8
238.459	134.06
238.834	142.97
239.21	149.56
239.586	155.83
239.961	158.37
240.337	158.46
240.713	161.09
241.088	165.79
241.464	168.74
241.839	174.17
242.215	182.13
242.59	198.36
242.965	235.06
243.341	305.57
243.716	408.11
244.091	629.91
244.467	976.35
244.842	2473.72
245.217	-25930.77
245.592	-4310.13
245.967	-2986.96
246.343	-3043.36
246.718	-11080.65
247.093	-68180
247.468	-37744.44
247.843	-4914.49
248.218	-1790.05
248.593	-1057.89
248.967	-775.06
249.342	-647.23
249.717	-622.4
250.092	-599.82
250.467	-679.96
250.841	-1048.91
251.216	-6103.64
251.591	1862.43
251.965	783.22
252.34	581.71
252.714	461.13
253.089	395.27
253.463	391.24
253.838	400.58
254.212	403.63
254.587	442.71
254.961	532.76
255.335	780
255.71	3624.73
256.084	-946.42
256.458	-395.77
256.832	-261.82
257.206	-214.42
257.581	-190.1
257.955	-179.71
258.329	-171.28
258.703	-160.07
259.077	-151.33
259.451	-145.36
259.825	-135.71
260.199	-127.62
260.572	-122.61
260.946	-115.08
261.32	-113.55
261.694	-110.51
262.068	-108.39
262.441	-106.05
262.815	-103.92
263.189	-105.17
263.562	-113.96
263.936	-132.7
264.309	-163.68
264.683	-198.02
265.056	-224.12
265.43	-240.96
265.803	-235.44
266.176	-222.9
266.55	-215.35
266.923	-208.38
267.296	-195.98
267.67	-184.3
268.043	-172.53
268.416	-157.24
268.789	-141.29
269.162	-124.26
269.535	-113.97
269.908	-106.99
270.281	-104.44
270.654	-105.33
271.027	-107.33
271.4	-108.83
271.773	-109.27
272.146	-107.76
272.519	-103.7
272.891	-99.46
273.264	-96.49
273.637	-95.82
274.01	-95.91
274.382	-94.88
274.755	-92.61
275.127	-92.76
275.5	-93.67
275.872	-93.72
276.245	-93.23
276.617	-96.7
276.99	-100.48
277.362	-104.23
277.734	-104.89
278.107	-103.23
278.479	-97.78
278.851	-92.76
279.223	-87.45
279.596	-84.62
279.968	-81.45
280.34	-80.31
280.712	-78.6
281.084	-74.81
281.456	-69.47
281.828	-64.61
282.2	-59.7
282.572	-56.4
282.944	-53.57
283.315	-51.94
283.687	-51.12
284.059	-50.76
284.431	-49.63
284.802	-49.63
285.174	-48.08
285.546	-46.25
285.917	-45.59
286.289	-44.41
286.66	-43.41
287.032	-43.21
287.403	-42.45
287.775	-42.44
288.146	-42.74
288.518	-42.5
288.889	-42.42
289.26	-43.47
289.632	-44.29
290.003	-46.22
290.374	-47.47
290.745	-48.12
291.116	-47.69
291.487	-45.98
291.858	-44.47
292.229	-43.6
292.6	-41.49
292.971	-39.86
293.342	-38.13
293.713	-36.23
294.084	-35.2
294.455	-34.29
294.826	-33.46
295.196	-33.55
295.567	-33.19
295.938	-32.8
296.308	-32.93
296.679	-32.11
297.05	-31.54
297.42	-31.16
297.791	-30.15
298.161	-29.13
298.532	-28.48
298.902	-28.42
299.272	-28.1
299.643	-27.71
300.013	-27.23
300.383	-26.98
300.754	-26.91
301.124	-27.1
301.494	-26.98
301.864	-27.09
302.234	-27.33
302.604	-27.41
302.974	-27.17
303.344	-26.76
303.714	-25.96
304.084	-24.48
304.454	-24.06
304.824	-22.92
305.194	-21.74
305.563	-21.28
305.933	-20.13
306.303	-18.79
306.673	-17.79
307.042	-17
307.412	-16.4
307.781	-15.23
308.151	-14.32
308.521	-13.78
308.89	-13.61
309.259	-13.3
309.629	-12.67
309.998	-12.49
310.368	-12.14
310.737	-11.77
311.106	-11.66
311.475	-11.56
311.845	-11.5
312.214	-11.07
312.583	-10.88
312.952	-10.59
313.321	-10.28
313.69	-10.62
314.059	-10.97
314.428	-11.05
314.797	-11.37
315.166	-12.08
315.535	-12.86
315.904	-13.45
316.272	-13.53
316.641	-13.6
317.01	-13.86
317.379	-14.24
317.747	-13.61
318.116	-13.26
318.484	-12.64
318.853	-11.78
319.221	-11.5
319.59	-11.48
319.958	-11.52
320.327	-10.97
320.695	-10.7
321.063	-10.28
321.432	-9.72
321.8	-9.34
322.168	-8.55
322.536	-7.76
322.905	-6.6
323.273	-5.79
323.641	-5.1
324.009	-4.95
324.377	-4.42
324.745	-3.98
325.113	-3.47
325.481	-3.17
325.849	-2.87
326.216	-2.76
326.584	-2.57
326.952	-2.21
327.32	-1.74
327.687	-1.2
328.055	-1.01
328.423	-0.65
328.79	-0.55
329.158	-0.43
329.525	0.03
329.893	0.08
330.26	0.23
330.628	0.31
330.995	0.71
331.362	0.9
331.73	1.51
332.097	1.78
332.464	1.97
332.831	2.24
333.199	2.61
333.566	2.92
333.933	3.02
334.3	3.08
334.667	3.29
335.034	3.6
335.401	3.73
335.768	3.76
336.135	3.83
336.502	4.07
336.868	4.42
337.235	4.55
337.602	4.88
337.969	5.07
338.335	5.37
338.702	5.52
339.069	5.7
339.435	5.81
339.802	5.94
340.168	6.24
340.535	6.31
340.901	6.27
341.267	6.56
341.634	7.02
342	7.27
342.366	7.46
342.733	7.63
343.099	7.82
343.465	8.09
343.831	8.27
344.197	8.43
344.563	8.58
344.929	8.78
345.295	8.93
345.661	9.13
346.027	9.22
346.393	9.3
346.759	9.38
347.125	9.45
347.491	9.68
347.856	9.8
348.222	9.96
348.588	10.13
348.953	10.11
349.319	10.16
349.684	10.32
350.05	10.51
350.415	10.67
350.781	10.79
351.146	10.96
351.512	11.05
351.877	11.26
352.242	11.38
352.608	11.36
352.973	11.42
353.338	11.4
353.703	11.5
354.068	11.63
354.433	11.79
354.798	11.99
355.164	12.04
355.528	12.01
355.893	12.06
356.258	12.16
356.623	12.15
356.988	12.27
357.353	12.45
357.718	12.55
358.082	12.57
358.447	12.64
358.812	12.66
359.176	12.79
359.541	12.78
359.905	12.86
360.27	13.05
360.634	13.2
360.999	13.34
361.363	13.5
361.728	13.55
362.092	13.62
362.456	13.61
362.821	13.68
363.185	13.79
363.549	13.9
363.913	13.99
364.277	14.17
364.641	14.2
365.005	14.21
365.369	14.24
365.733	14.28
366.097	14.44
366.461	14.46
366.825	14.52
367.189	14.67
367.553	14.82
367.916	14.87
368.28	14.87
368.644	14.99
369.007	15.07
369.371	15.23
369.734	15.3
370.098	15.51
370.461	15.63
370.825	15.72
371.188	15.86
371.552	15.91
371.915	15.96
372.278	16.08
372.642	16.23
373.005	16.37
373.368	16.39
373.731	16.33
374.094	16.4
374.457	16.45
374.82	16.46
375.183	16.44
375.546	16.48
375.909	16.6
376.272	16.61
376.635	16.61
376.998	16.57
377.361	16.63
377.723	16.57
378.086	16.61
378.449	16.68
378.811	16.75
379.174	16.84
379.537	16.9
379.899	16.95
380.262	16.96
380.624	16.95
380.987	17.06
381.349	17.14
381.711	17.23
382.074	17.28
382.436	17.37
382.798	17.37
383.16	17.43
383.522	17.46
383.884	17.54
384.247	17.63
384.609	17.68
384.971	17.69
385.333	17.76
385.695	17.76
386.056	17.8
386.418	17.78
386.78	17.77
387.142	17.77
387.504	17.79
387.865	17.76
388.227	17.76
388.589	17.77
388.95	17.76
389.312	17.72
389.673	17.73
390.035	17.68
390.396	17.68
390.758	17.64
391.119	17.63
391.48	17.56
391.842	17.54
392.203	17.5
392.564	17.47
392.925	17.46
393.286	17.46
393.648	17.44
394.009	17.44
394.37	17.46
394.731	17.45
395.092	17.42
395.452	17.47
395.813	17.49
396.174	17.44
396.535	17.42
396.896	17.42
397.257	17.4
397.617	17.43
397.978	17.46
398.338	17.5
398.699	17.51
399.06	17.5
399.42	17.44
399.781	17.46
400.141	17.45
400.501	17.44
400.862	17.43
401.222	17.44
401.582	17.43
401.943	17.42
402.303	17.44
402.663	17.4
403.023	17.35
403.383	17.32
403.743	17.34
404.103	17.38
404.463	17.42
404.823	17.45
405.183	17.42
405.543	17.42
405.903	17.42
406.262	17.4
406.622	17.44
406.982	17.5
407.342	17.51
407.701	17.5
408.061	17.49
408.42	17.46
408.78	17.48
409.139	17.48
409.499	17.48
409.858	17.47
410.217	17.51
410.577	17.51
410.936	17.53
411.295	17.52
411.655	17.49
412.014	17.48
412.373	17.44
412.732	17.41
413.091	17.39
413.45	17.33
413.809	17.3
414.168	17.23
414.527	17.13
414.886	17.03
415.245	16.98
415.603	16.9
415.962	16.84
416.321	16.72
416.679	16.62
417.038	16.52
417.397	16.41
417.755	16.31
418.114	16.26
418.472	16.21
418.831	16.16
419.189	16.12
419.547	16.05
419.906	15.99
420.264	15.94
420.622	15.87
420.981	15.82
421.339	15.76
421.697	15.72
422.055	15.71
422.413	15.7
422.771	15.69
423.129	15.67
423.487	15.66
423.845	15.67
424.203	15.67
424.56	15.69
424.918	15.7
425.276	15.74
425.634	15.75
425.991	15.73
426.349	15.75
426.707	15.75
427.064	15.76
427.422	15.79
427.779	15.83
428.137	15.87
428.494	15.91
428.851	16.01
429.209	16.03
429.566	16.05
429.923	16.06
430.28	16.08
430.637	16.12
430.995	16.13
431.352	16.13
431.709	16.17
432.066	16.18
432.423	16.21
432.78	16.23
433.137	16.26
433.493	16.28
433.85	16.29
434.207	16.28
434.564	16.27
434.92	16.29
435.277	16.27
435.634	16.28
435.99	16.3
436.347	16.27
436.703	16.27
437.06	16.26
437.416	16.28
437.773	16.27
438.129	16.25
438.485	16.24
438.841	16.26
439.198	16.26
439.554	16.24
439.91	16.24
440.266	16.22
440.622	16.2
440.978	16.17
441.334	16.15
441.69	16.14
442.046	16.12
442.402	16.06
442.758	16.01
443.113	15.95
443.469	15.88
443.825	15.86
444.181	15.84
444.536	15.83
444.892	15.79
445.247	15.77
445.603	15.77
445.958	15.75
446.314	15.72
446.669	15.68
447.025	15.66
447.38	15.63
447.735	15.6
448.09	15.57
448.446	15.56
448.801	15.53
449.156	15.5
449.511	15.49
449.866	15.49
450.221	15.51
450.576	15.53
450.931	15.55
451.286	15.52
451.641	15.53
451.995	15.51
452.35	15.54
452.705	15.52
453.06	15.5
453.414	15.52
453.769	15.52
454.123	15.52
454.478	15.53
454.832	15.53
455.187	15.52
455.541	15.53
455.896	15.52
456.25	15.52
456.604	15.53
456.958	15.54
457.313	15.56
457.667	15.58
458.021	15.62
458.375	15.67
458.729	15.73
459.083	15.75
459.437	15.8
459.791	15.82
460.145	15.87
460.499	15.93
460.852	15.96
461.206	16.02
461.56	16.09
461.914	16.14
462.267	16.2
462.621	16.31
462.974	16.41
463.328	16.53
463.681	16.64
464.035	16.77
464.388	16.9
464.742	17
465.095	17.11
465.448	17.18
465.801	17.26
466.155	17.34
466.508	17.44
466.861	17.5
467.214	17.57
467.567	17.64
467.92	17.69
468.273	17.74
468.626	17.8
468.979	17.84
469.332	17.88
469.684	17.92
470.037	17.96
470.39	17.96
470.743	18
471.095	18.05
471.448	18.07
471.8	18.11
472.153	18.14
472.505	18.15
472.858	18.16
473.21	18.15
473.562	18.12
473.915	18.09
474.267	18.05
474.619	18
474.971	17.96
475.324	17.89
475.676	17.84
476.028	17.77
476.38	17.69
476.732	17.62
477.084	17.55
477.436	17.46
477.787	17.39
478.139	17.29
478.491	17.18
478.843	17.1
479.195	16.98
479.546	16.8
479.898	16.61
480.249	16.45
480.601	16.3
480.952	16.21
481.304	16.13
481.655	16.07
482.007	16.04
482.358	15.99
482.709	15.95
483.061	15.92
483.412	15.9
483.763	15.87
484.114	15.85
484.465	15.84
484.816	15.82
485.167	15.81
485.518	15.81
485.869	15.82
486.22	15.83
486.571	15.84
486.922	15.88
487.272	15.92
487.623	15.96
487.974	16.04
488.324	16.1
488.675	16.18
489.025	16.24
489.376	16.31
489.726	16.39
490.077	16.48
490.427	16.56
490.778	16.65
491.128	16.76
491.478	16.89
491.828	17.03
492.179	17.19
492.529	17.34
492.879	17.49
493.229	17.62
493.579	17.75
493.929	17.88
494.279	18.01
494.629	18.18
494.979	18.38
495.328	18.61
495.678	18.87
496.028	19.12
496.378	19.38
496.727	19.59
497.077	19.79
497.426	19.98
497.776	20.18
498.125	20.36
498.475	20.55
498.824	20.73
499.174	20.89
499.523	21.06
499.872	21.26
500.221	21.45
500.571	21.64
500.92	21.85
501.269	22.04
501.618	22.22
501.967	22.4
502.316	22.59
502.665	22.76
503.014	22.94
503.363	23.12
503.711	23.24
504.06	23.39
504.409	23.52
504.758	23.65
505.106	23.75
505.455	23.87
505.803	24
506.152	24.1
506.5	24.21
506.849	24.31
507.197	24.4
507.546	24.51
507.894	24.62
508.242	24.71
508.59	24.79
508.939	24.87
509.287	24.93
509.635	25
509.983	25.07
510.331	25.15
510.679	25.19
511.027	25.25
511.375	25.31
511.723	25.4
512.07	25.45
512.418	25.52
512.766	25.58
513.114	25.64
513.461	25.7
513.809	25.72
514.156	25.76
514.504	25.78
514.851	25.79
515.199	25.81
515.546	25.84
515.893	25.86
516.241	25.91
516.588	25.96
516.935	25.97
517.282	25.98
517.63	26
517.977	26.02
518.324	26.04
518.671	26.05
519.018	26.05
519.365	26.06
519.711	26.09
520.058	26.09
520.405	26.06
520.752	26.07
521.099	26.08
521.445	26.07
521.792	26.07
522.138	26.07
522.485	26.07
522.832	26.08
523.178	26.08
523.524	26.07
523.871	26.07
524.217	26.06
524.563	26
524.91	25.97
525.256	25.95
525.602	25.93
525.948	25.92
526.294	25.91
526.64	25.91
526.986	25.9
527.332	25.91
527.678	25.92
528.024	25.92
528.37	25.93
528.716	25.93
529.061	25.94
529.407	25.94
529.753	25.92
530.098	25.9
530.444	25.89
530.789	25.89
531.135	25.87
531.48	25.88
531.826	25.91
532.171	25.93
532.516	25.93
532.862	25.94
533.207	25.94
533.552	25.95
533.897	25.96
534.242	25.95
534.587	25.94
534.932	25.94
535.277	25.93
535.622	25.91
535.967	25.94
536.312	25.92
536.657	25.93
537.001	25.95
537.346	25.94
537.691	25.92
538.035	25.88
538.38	25.86
538.724	25.82
539.069	25.81
539.413	25.8
539.758	25.78
540.102	25.77
540.446	25.75
540.791	25.75
541.135	25.75
541.479	25.74
541.823	25.75
542.167	25.74
542.512	25.73
542.856	25.71
543.2	25.68
543.543	25.68
543.887	25.68
544.231	25.66
544.575	25.66
544.919	25.68
545.262	25.71
545.606	25.73
545.95	25.73
546.293	25.72
546.637	25.71
546.98	25.72
547.324	25.73
547.667	25.75
548.011	25.71
548.354	25.68
548.697	25.66
549.04	25.62
549.384	25.62
549.727	25.58
550.07	25.58
550.413	25.59
550.756	25.59
551.099	25.56
551.442	25.59
551.785	25.59
552.128	25.58
552.47	25.54
552.813	25.5
553.156	25.5
553.499	25.49
553.841	25.46
554.184	25.42
554.526	25.4
554.869	25.36
555.211	25.33
555.554	25.33
555.896	25.31
556.238	25.3
556.581	25.27
556.923	25.27
557.265	25.24
557.607	25.19
557.949	25.16
558.291	25.14
558.633	25.09
558.975	25.03
559.317	25.03
559.659	25.02
560.001	25.04
560.343	25.01
560.685	24.98
561.026	24.96
561.368	24.91
561.71	24.86
562.051	24.86
562.393	24.86
562.734	24.82
563.076	24.79
563.417	24.74
563.759	24.74
564.1	24.72
564.441	24.71
564.782	24.67
565.124	24.64
565.465	24.6
565.806	24.57
566.147	24.55
566.488	24.52
566.829	24.49
567.17	24.44
567.511	24.4
567.851	24.38
568.192	24.33
568.533	24.36
568.874	24.37
569.214	24.32
569.555	24.27
569.895	24.24
570.236	24.22
570.576	24.2
570.917	24.15
571.257	24.1
571.598	24.06
571.938	24.05
572.278	24.02
572.618	24.01
572.959	23.98
573.299	23.96
573.639	23.95
573.979	23.93
574.319	23.9
574.659	23.91
574.999	23.88
575.339	23.87
575.678	23.82
576.018	23.76
576.358	23.73
576.698	23.72
577.037	23.69
577.377	23.66
577.716	23.64
578.056	23.64
578.395	23.62
578.735	23.61
579.074	23.58
579.413	23.56
579.753	23.53
580.092	23.51
580.431	23.51
580.77	23.46
581.109	23.43
581.448	23.42
581.787	23.35
582.126	23.3
582.465	23.29
582.804	23.28
583.143	23.27
583.482	23.25
583.82	23.2
584.159	23.18
584.498	23.15
584.836	23.17
585.175	23.15
585.514	23.15
585.852	23.12
586.19	23.14
586.529	23.14
586.867	23.14
587.205	23.12
587.544	23.11
587.882	23.11
588.22	23.07
588.558	23.06
588.896	23.05
589.234	23.06
589.572	23.04
589.91	23
590.248	23
590.586	22.97
590.924	22.97
591.262	22.99
591.599	22.99
591.937	22.96
592.275	22.91
592.612	22.91
592.95	22.91
593.287	22.87
593.625	22.89
593.962	22.87
594.299	22.91
594.637	22.89
594.974	22.88
595.311	22.87
595.648	22.88
595.985	22.86
596.322	22.84
596.659	22.83
596.996	22.82
597.333	22.79
597.67	22.81
598.007	22.78
598.344	22.73
598.681	22.74
599.017	22.71
599.354	22.71
599.691	22.67
600.027	22.63
600.364	22.64
600.7	22.59
601.037	22.62
601.373	22.61
601.71	22.61
602.046	22.62
602.382	22.64
602.718	22.61
603.054	22.6
603.391	22.62
603.727	22.62
604.063	22.61
604.399	22.62
604.735	22.62
605.071	22.63
605.406	22.66
605.742	22.61
606.078	22.62
606.414	22.63
606.749	22.63
607.085	22.64
607.421	22.63
607.756	22.64
608.092	22.59
608.427	22.52
608.762	22.5
609.098	22.43
609.433	22.38
609.768	22.34
610.104	22.34
610.439	22.36
610.774	22.33
611.109	22.32
611.444	22.27
611.779	22.22
612.114	22.18
612.449	22.13
612.784	22.13
613.118	22.1
613.453	22.04
613.788	22.01
614.123	21.97
614.457	21.93
614.792	21.91
615.126	21.84
615.461	21.86
615.795	21.79
616.13	21.82
616.464	21.81
616.798	21.83
617.132	21.83
617.467	21.79
617.801	21.75
618.135	21.74
618.469	21.75
618.803	21.72
619.137	21.71
619.471	21.72
619.805	21.69
620.139	21.71
620.472	21.71
620.806	21.68
621.14	21.68
621.473	21.65
621.807	21.62
622.141	21.61
622.474	21.6
622.808	21.67
623.141	21.67
623.474	21.68
623.808	21.69
624.141	21.7
624.474	21.74
624.807	21.75
625.141	21.77
625.474	21.78
625.807	21.83
626.14	21.88
626.473	21.89
626.806	21.91
627.138	21.93
627.471	21.89
627.804	21.91
628.137	21.89
628.469	21.9
628.802	21.88
629.135	21.88
629.467	21.87
629.8	21.82
630.132	21.81
630.465	21.82
630.797	21.79
631.129	21.75
631.461	21.67
631.794	21.66
632.126	21.63
632.458	21.62
632.79	21.59
633.122	21.55
633.454	21.55
633.786	21.5
634.118	21.45
634.45	21.47
634.781	21.46
635.113	21.43
635.445	21.41
635.777	21.37
636.108	21.41
636.44	21.42
636.771	21.41
637.103	21.37
637.434	21.31
637.765	21.32
638.097	21.32
638.428	21.34
638.759	21.36
639.09	21.34
639.422	21.35
639.753	21.27
640.084	21.29
640.415	21.24
640.746	21.26
641.077	21.26
641.407	21.25
641.738	21.24
642.069	21.27
642.4	21.26
642.73	21.28
643.061	21.21
643.392	21.17
643.722	21.19
644.053	21.16
644.383	21.18
644.713	21.17
645.044	21.14
645.374	21.13
645.704	21.07
646.034	21.06
646.365	21.04
646.695	21.09
647.025	21.07
647.355	21.06
647.685	21.09
648.015	21.15
648.344	21.22
648.674	21.24
649.004	21.21
649.334	21.22
649.663	21.24
649.993	21.29
650.323	21.29
650.652	21.23
650.982	21.27
651.311	21.27
651.64	21.24
651.97	21.23
652.299	21.24
652.628	21.29
652.958	21.31
653.287	21.33
653.616	21.27
653.945	21.29
654.274	21.28
654.603	21.28
654.932	21.23
655.261	21.21
655.589	21.21
655.918	21.26
656.247	21.32
656.576	21.39
656.904	21.4
657.233	21.45
657.561	21.51
657.89	21.55
658.218	21.56
658.547	21.57
658.875	21.6
659.203	21.6
659.532	21.54
659.86	21.53
660.188	21.52
660.516	21.56
660.844	21.5
661.172	21.56
661.5	21.52
661.828	21.5
662.156	21.44
662.484	21.35
662.811	21.28
663.139	21.24
663.467	21.18
663.794	21.09
664.122	21.03
664.45	20.97
664.777	20.87
665.104	20.86
665.432	20.75
665.759	20.72
666.086	20.7
666.414	20.79
666.741	20.77
667.068	20.76
667.395	20.78
667.722	20.82
668.049	20.72
668.376	20.67
668.703	20.63
669.03	20.66
669.357	20.74
669.683	20.72
670.01	20.73
670.337	20.72
670.663	20.78
670.99	20.74
671.317	20.75
671.643	20.84
671.969	20.82
672.296	20.88
672.622	20.89
672.948	20.9
673.275	20.79
673.601	20.81
673.927	20.79
674.253	20.76
674.579	20.72
674.905	20.75
675.231	20.8
675.557	20.88
675.883	20.88
676.209	20.9
676.534	20.94
676.86	20.92
677.186	20.98
677.511	21.05
677.837	21.14
678.162	21.12
678.488	21.12
678.813	21.15
679.139	21.25
679.464	21.27
679.789	21.27
680.114	21.34
680.44	21.38
680.765	21.33
681.09	21.35
681.415	21.41
681.74	21.42
682.065	21.42
682.39	21.38
682.714	21.32
683.039	21.31
683.364	21.31
683.689	21.3
684.013	21.23
684.338	21.22
684.662	21.21
684.987	21.27
685.311	21.26
685.636	21.25
685.96	21.12
686.284	21.06
686.608	21.01
686.933	20.99
687.257	20.95
687.581	21
687.905	20.97
688.229	20.91
688.553	20.87
688.877	20.85
689.201	20.85
689.524	20.92
689.848	20.9
690.172	20.92
690.496	20.95
690.819	20.9
691.143	20.81
691.466	20.78
691.79	20.72
692.113	20.66
692.436	20.57
692.76	20.58
693.083	20.57
693.406	20.56
693.729	20.53
694.053	20.55
694.376	20.59
694.699	20.63
695.022	20.75
695.344	20.93
695.667	21.06
695.99	21.18
696.313	21.26
696.636	21.35
696.958	21.35
697.281	21.35
697.604	21.37
697.926	21.4
698.249	21.45
698.571	21.44
698.893	21.38
699.216	21.35
699.538	21.37
699.86	21.35
700.182	21.34
700.504	21.39
700.827	21.41
701.149	21.33
701.471	21.32
701.793	21.2
702.114	21.09
702.436	20.95
702.758	20.77
703.08	20.66
703.401	20.46
703.723	20.29
704.045	20.18
704.366	20.13
704.688	20.13
705.009	20.03
705.331	20.08
705.652	20.07
705.973	20.22
706.294	20.18
706.616	20.27
706.937	20.24
707.258	20.26
707.579	20.28
707.9	20.32
708.221	20.42
708.542	20.52
708.863	20.51
709.183	20.46
709.504	20.46
709.825	20.42
710.145	20.56
710.466	20.61
710.787	20.55
711.107	20.51
711.427	20.46
711.748	20.42
712.068	20.4
712.388	20.52
712.709	20.53
713.029	20.66
713.349	20.59
713.669	20.7
713.989	20.64
714.309	20.6
714.629	20.57
714.949	20.47
715.269	20.32
715.589	20.31
715.908	20.4
716.228	20.45
716.548	20.44
716.867	20.39
717.187	20.44
717.506	20.6
717.826	20.74
718.145	20.7
718.465	20.78
718.784	20.89
719.103	20.88
719.422	20.83
719.741	20.75
720.061	20.88
720.38	20.91
720.699	20.95
721.018	20.94
721.336	21.03
721.655	21.2
721.974	21.39
722.293	21.5
722.612	21.58
722.93	21.66
723.249	21.82
723.567	21.86
723.886	22.05
724.204	22.08
724.523	22.12
724.841	22.26
725.159	22.36
725.477	22.32
725.796	22.37
726.114	22.57
726.432	22.79
726.75	22.86
727.068	22.86
727.386	23.05
727.704	23.15
728.022	23.29
728.339	23.27
728.657	23.4
728.975	23.51
729.292	23.67
729.61	23.75
729.928	23.77
730.245	23.88
730.562	23.89
730.88	24.02
731.197	24.05
731.514	24.18
731.832	24.31
732.149	24.56
732.466	24.7
732.783	24.73
733.1	24.83
733.417	24.98
733.734	25.18
734.051	25.26
734.368	25.45
734.684	25.61
735.001	25.76
735.318	25.83
735.634	25.89
735.951	25.87
736.268	26.09
736.584	26.37
736.9	26.63
737.217	26.87
737.533	27.01
737.849	27.24
738.166	27.29
738.482	27.31
738.798	27.32
739.114	27.44
739.43	27.57
739.746	27.63
740.062	27.67
740.378	27.68
740.693	27.78
741.009	27.86
741.325	27.93
741.641	28.04
741.956	28.1
742.272	28.26
742.587	28.36
742.903	28.31
743.218	28.36
743.533	28.26
743.849	28.31
744.164	28.36
744.479	28.38
744.794	28.51
745.109	28.68
745.424	28.58
745.739	28.65
746.054	28.81
746.369	28.85
746.684	28.94
746.999	28.99
747.313	29.15
747.628	29.24
747.943	29.29
748.257	29.32
748.572	29.49
748.886	29.56
749.201	29.69
749.515	29.82
749.829	29.82
750.144	30
750.458	29.99
750.772	30.08
751.086	30.24
751.4	30.25
751.714	30.22
752.028	30.39
752.342	30.53
752.656	30.52
752.97	30.62
753.284	30.65
753.597	30.76
753.911	30.76
754.225	30.81
754.538	30.91
754.852	31.05
755.165	31.03
755.478	31.02
755.792	31.04
756.105	31
756.418	31.05
756.731	31.14
757.045	31.25
757.358	31.38
757.671	31.45
757.984	31.7
758.297	31.8
758.609	32
758.922	32.09
759.235	32.04
759.548	32.02
759.86	32.09
760.173	32
760.486	31.84
760.798	31.74
761.111	31.58
761.423	31.5
761.735	31.44
762.048	31.45
762.36	31.48
762.672	31.54
762.984	31.67
763.296	31.64
763.608	31.73
763.92	31.73
764.232	31.77
764.544	31.89
764.856	32.07
765.168	32.05
765.48	32.1
765.791	32.29
766.103	32.41
766.414	32.52
766.726	32.73
767.037	33.08
767.349	33.4
767.66	33.88
767.972	34.2
768.283	34.65
768.594	35.06
768.905	35.38
769.216	35.7
769.527	35.92
769.838	36.21
770.149	36.34
770.46	36.56
770.771	36.64
771.082	36.62
771.393	36.67
771.703	36.97
772.014	36.96
772.324	37.08
772.635	37.27
772.945	37.37
773.256	37.83
773.566	37.74
773.877	38.05
774.187	38.1
774.497	38.27
774.807	38.21
775.117	38.25
775.427	38.49
775.737	38.41
776.047	38.28
776.357	38.35
776.667	38.52
776.977	38.76
777.287	38.99
777.596	39.07
777.906	38.93
778.216	38.95
778.525	39.05
778.835	39
779.144	39
779.453	39.05
779.763	38.97
780.072	39.43
780.381	39.34
780.69	39.41
781	39.68
781.309	40
781.618	40.12
781.927	40.38
782.235	40.67
782.544	40.96
782.853	40.97
783.162	41.11
783.471	41.21
783.779	41.23
784.088	41.42
784.396	41.54
784.705	41.45
785.013	41.59
785.322	41.86
785.63	41.62
785.938	41.78
786.246	41.73
786.554	41.58
786.863	41.65
787.171	41.51
787.479	41.47
787.787	41.37
788.094	41.32
788.402	41.02
788.71	40.89
789.018	40.78
789.326	40.93
789.633	40.9
789.941	40.65
790.248	40.58
790.556	40.42
790.863	40.59
791.171	40.77
791.478	40.69
791.785	40.63
792.092	40.95
792.399	40.82
792.707	40.92
793.014	41.08
793.321	40.8
793.628	40.78
793.934	40.78
794.241	40.63
794.548	40.45
794.855	40.28
795.161	40.39
795.468	40.45
795.775	40.43
796.081	40.22
796.388	40.24
796.694	40.49
797	40.7
797.307	40.46
797.613	40.35
797.919	40.34
798.225	40.34
798.531	40.63
798.837	40.95
799.143	40.99
799.449	41.13
799.755	41.34
800.061	41.72
800.367	41.79
800.672	42.14
800.978	42.64
801.284	42.98
801.589	43.25
801.895	43.54
802.2	43.77
802.506	43.85
802.811	44.05
803.116	44.03
803.421	43.94
803.727	44.26
804.032	44.36
804.337	44.54
804.642	44.65
804.947	44.75
805.252	44.84
805.556	44.8
805.861	44.74
806.166	45.06
806.471	45.33
806.775	45.42
807.08	45.42
807.384	45.25
807.689	45.45
807.993	45.28
808.298	45.57
808.602	45.79
808.906	46.07
809.211	46.36
809.515	46.2
809.819	45.96
810.123	46.23
810.427	46.59
810.731	46.63
811.035	46.67
811.338	46.58
811.642	46.84
811.946	47.18
812.25	47.29
812.553	47.11
812.857	46.88
813.16	46.98
813.464	47.02
813.767	47.33
814.07	47.27
814.374	47.68
814.677	47.52
814.98	47.6
815.283	47.74
815.586	47.49
815.889	47.45
816.192	48.18
816.495	48.05
816.798	47.76
817.101	47.62
817.404	47.09
817.706	46.55
818.009	45.55
818.312	44.82
818.614	43.33
818.917	41.92
819.219	39.89
819.521	38.22
819.824	36.64
820.126	35.34
820.428	34.5
820.73	33.78
821.032	33.24
821.334	32.88
821.636	32.62
821.938	32.53
822.24	32.41
822.542	32.3
822.844	32.16
823.145	32.06
823.447	32.01
823.749	32.07
824.05	31.98
824.352	31.88
824.653	31.81
824.955	31.87
825.256	31.91
825.557	32.14
825.858	32.31
826.16	32.6
826.461	33.03
826.762	33.46
827.063	33.92
827.364	34.47
827.665	34.83
827.965	35.33
828.266	35.66
828.567	36.05
828.868	36.17
829.168	36.57
829.469	36.97
829.769	37.2
830.07	37.37
830.37	37.79
830.67	38.32
830.971	38.74
831.271	39.19
831.571	39.43
831.871	39.45
832.171	39.55
832.471	39.68
832.771	39.54
833.071	39.68
833.371	39.98
833.671	39.97
833.971	40.11
834.27	40.13
834.57	40.16
834.869	40.23
835.169	40.41
835.468	40.33
835.768	40.17
836.067	40.25
836.367	40.38
836.666	40.68
836.965	40.99
837.264	41.52
837.563	42.18
837.862	43.09
838.161	44.1
838.46	45.19
838.759	46.06
839.058	47.08
839.356	47.56
839.655	47.99
839.954	48.39
840.252	49.14
840.551	49.59
840.849	49.46
841.148	50.11
841.446	50.51
841.744	51.24
842.043	52.05
842.341	52.31
842.639	52.84
842.937	52.75
843.235	53.15
843.533	53.66
843.831	54.12
844.129	54.68
844.427	55.67
844.724	55.98
845.022	56.89
845.32	57.34
845.617	58.51
845.915	58.85
846.212	59.81
846.51	60.77
846.807	61.07
847.104	61.95
847.402	62.07
847.699	62.73
847.996	62.36
848.293	61.88
848.59	62.16
848.887	62.19
849.184	62.75
849.481	63.42
849.778	64.41
850.074	64.72
850.371	65.33
850.668	64.91
850.964	65.13
851.261	65.29
851.557	65.8
851.854	65.54
852.15	65.1
852.446	65.13
852.743	64.56
853.039	64.05
853.335	65.16
853.631	66.03
853.927	65.95
854.223	66.13
854.519	66.29
854.815	66.73
855.111	66.39
855.406	66.21
855.702	66.04
855.998	64.83
856.293	65.05
856.589	65.58
856.884	66.06
857.18	65.59
857.475	65.99
857.77	65.88
858.066	65.75
858.361	66.98
858.656	67.35
858.951	67.3
859.246	66.74
859.541	65.81
859.836	64.63
860.131	64.58
860.426	64.9
860.72	64.99
861.015	63.89
861.31	63.9
861.604	64.4
861.899	64.17
862.193	64.84
862.487	64.94
862.782	64.16
863.076	63.72
863.37	64.58
863.664	64.76
863.959	64.7
864.253	65.03
864.547	65.2
864.841	64.51
865.135	64.02
865.428	64.54
865.722	65.1
866.016	66.02
866.31	65.98
866.603	65.98
866.897	66.48
867.19	67.88
867.484	68.94
867.777	68.83
868.07	69.35
868.364	69.57
868.657	69.42
868.95	69.64
869.243	69.99
869.536	69.39
869.829	68.45
870.122	68.88
870.415	69.16
870.708	68.15
871	67.95
871.293	67.94
871.586	68.81
871.878	68.08
872.171	67.13
872.463	66.72
872.756	67.72
873.048	67.64
873.341	67.17
873.633	66.3
873.925	66.41
874.217	65.67
874.509	64.65
874.801	64.24
875.093	64.09
875.385	63.64
875.677	63.72
875.969	64.23
