Data from pcis_p_h3_p6_Reflection_1.txt Node
Date: Wed Jul 12 17:55:25 ART 2017
User: rodoncho
Spectrometer: USB2E3644
Trigger mode: 4
Integration Time (sec): 6.000000E-2
Scans to average: 10
Electric dark correction enabled: true
Nonlinearity correction enabled: false
Boxcar width: 10
XAxis mode: Wavelengths
Number of Pixels in Spectrum: 2048
>>>>>Begin Spectral Data<<<<<
178.315	1494.12
178.696	1600
179.076	385.85
179.457	293.15
179.838	196.61
180.218	184.83
180.599	1240
180.979	41.18
181.36	29.79
181.74	-40.32
182.121	400
182.501	67.39
182.881	42.14
183.262	-4.02
183.642	-135.92
184.022	782.76
184.402	331.52
184.783	254.84
185.163	211.79
185.543	184.59
185.923	175.77
186.303	193.88
186.683	219.02
187.063	199.52
187.443	178.73
187.823	148.85
188.203	137.29
188.583	137.81
188.963	136.55
189.343	134.75
189.723	131.98
190.102	123.99
190.482	119.69
190.862	118.31
191.242	114.12
191.621	111.64
192.001	113.39
192.38	117.11
192.76	116.9
193.14	117.14
193.519	116.84
193.898	114.32
194.278	110.76
194.657	106.87
195.037	103.24
195.416	102.58
195.795	106.64
196.175	110.43
196.554	113.89
196.933	115.83
197.312	115.43
197.692	116
198.071	118.9
198.45	120.01
198.829	119.31
199.208	117.37
199.587	115.96
199.966	113.63
200.345	109.48
200.724	110.02
201.103	109.45
201.482	109.13
201.86	111.69
202.239	114.42
202.618	113.65
202.997	114.73
203.375	116.3
203.754	115.7
204.133	113.42
204.511	109.96
204.89	107.43
205.269	105.84
205.647	105.28
206.026	104.61
206.404	103.32
206.782	103.12
207.161	104.93
207.539	106.14
207.918	108.57
208.296	110.54
208.674	109.6
209.052	108.79
209.431	108.38
209.809	106.57
210.187	104.32
210.565	104.67
210.943	104.09
211.321	102.67
211.699	102.19
212.077	101.28
212.455	101.68
212.833	103.7
213.211	104.67
213.589	104.16
213.967	103.2
214.345	102.33
214.722	101.46
215.1	100.62
215.478	100.93
215.855	100.7
216.233	100.08
216.611	99.85
216.988	100.16
217.366	98.99
217.743	99.45
218.121	99.61
218.498	99.14
218.876	98.77
219.253	99.15
219.631	99.24
220.008	100.15
220.385	98.86
220.762	97.01
221.14	96.29
221.517	96.97
221.894	98.66
222.271	98.66
222.648	100
223.025	101.85
223.402	100.31
223.78	100.23
224.157	100.79
224.533	102.12
224.91	103.27
225.287	105.09
225.664	105.76
226.041	107.61
226.418	108.49
226.795	110.8
227.171	112.21
227.548	112.94
227.925	112.82
228.301	114.44
228.678	114.95
229.055	115.6
229.431	115.36
229.808	115.66
230.184	116.19
230.561	114.64
230.937	113.69
231.313	114.25
231.69	114.59
232.066	115.68
232.442	116.2
232.819	115.86
233.195	116.18
233.571	116.3
233.947	115.02
234.323	115.18
234.699	113.67
235.075	112.8
235.451	113.11
235.827	114.15
236.203	113.74
236.579	114.7
236.955	115.89
237.331	118.32
237.707	119.93
238.083	122.81
238.459	128.26
238.834	134.37
239.21	140.99
239.586	147.71
239.961	153.03
240.337	155.26
240.713	160.28
241.088	165.04
241.464	168.64
241.839	179.45
242.215	191.24
242.59	211.43
242.965	249.03
243.341	328.92
243.716	482.25
244.091	913.93
244.467	2099.53
244.842	-8038.18
245.217	-1752.8
245.592	-1319.88
245.967	-1124.94
246.343	-1367.37
246.718	-1684.33
247.093	-1660.82
247.468	-1611.31
247.843	-1430.97
248.218	-927.58
248.593	-645.6
248.967	-515.94
249.342	-450.82
249.717	-472.61
250.092	-485.68
250.467	-551.08
250.841	-823.25
251.216	-3246.32
251.591	1787.65
251.965	766.44
252.34	584.26
252.714	493.71
253.089	441.66
253.463	413.59
253.838	424.35
254.212	450.9
254.587	499.48
254.961	569.67
255.335	811.69
255.71	5048.42
256.084	-848.58
256.458	-391.59
256.832	-262.89
257.206	-210.77
257.581	-181.19
257.955	-168.37
258.329	-158.11
258.703	-145.83
259.077	-137.18
259.451	-130.35
259.825	-122.75
260.199	-118.3
260.572	-115.39
260.946	-110.51
261.32	-108.15
261.694	-106.23
262.068	-102.9
262.441	-98.39
262.815	-95.46
263.189	-96.19
263.562	-103.51
263.936	-118.19
264.309	-138.47
264.683	-164.96
265.056	-180.33
265.43	-191.14
265.803	-185.18
266.176	-178.17
266.55	-176.1
266.923	-169.8
267.296	-158.33
267.67	-150.43
268.043	-136.63
268.416	-125.04
268.789	-111.22
269.162	-98.3
269.535	-91.11
269.908	-87.43
270.281	-85.81
270.654	-85.66
271.027	-87.36
271.4	-87.83
271.773	-87.65
272.146	-87.49
272.519	-83.54
272.891	-81.72
273.264	-80.75
273.637	-79.53
274.01	-79.73
274.382	-78.18
274.755	-77.44
275.127	-77.26
275.5	-77.5
275.872	-77.29
276.245	-77.92
276.617	-80.61
276.99	-84.36
277.362	-86.61
277.734	-87.15
278.107	-86.48
278.479	-83.39
278.851	-79.38
279.223	-76.32
279.596	-75.64
279.968	-75.36
280.34	-75.24
280.712	-73.7
281.084	-69.72
281.456	-65.07
281.828	-60.65
282.2	-56.19
282.572	-52.36
282.944	-49.94
283.315	-48.44
283.687	-47.94
284.059	-47.34
284.431	-46.38
284.802	-45.79
285.174	-44.42
285.546	-43.19
285.917	-42.54
286.289	-41.54
286.66	-40.41
287.032	-39.7
287.403	-38.62
287.775	-37.79
288.146	-37.19
288.518	-36.95
288.889	-37.05
289.26	-38.48
289.632	-39.19
290.003	-40.67
290.374	-42.27
290.745	-42.72
291.116	-42.39
291.487	-41.36
291.858	-39.98
292.229	-39
292.6	-37.28
292.971	-36.08
293.342	-34.14
293.713	-31.52
294.084	-30.03
294.455	-29.13
294.826	-28.23
295.196	-27.89
295.567	-27.64
295.938	-27.54
296.308	-27.44
296.679	-26.55
297.05	-25.74
297.42	-25.15
297.791	-24.49
298.161	-23.25
298.532	-22.59
298.902	-21.96
299.272	-21.67
299.643	-21.2
300.013	-20.78
300.383	-20.18
300.754	-19.9
301.124	-19.84
301.494	-20.06
301.864	-19.88
302.234	-19.86
302.604	-20.21
302.974	-19.89
303.344	-19.56
303.714	-19.04
304.084	-18.11
304.454	-18.2
304.824	-17.46
305.194	-16.54
305.563	-15.49
305.933	-14.55
306.303	-13.69
306.673	-13.19
307.042	-12.64
307.412	-12.22
307.781	-11.22
308.151	-10.53
308.521	-9.99
308.89	-9.72
309.259	-9.51
309.629	-9.44
309.998	-9.36
310.368	-9
310.737	-8.69
311.106	-8.24
311.475	-7.74
311.845	-7.73
312.214	-7.18
312.583	-7.07
312.952	-7.06
313.321	-7.09
313.69	-7.08
314.059	-7.23
314.428	-7.45
314.797	-7.88
315.166	-8.39
315.535	-8.89
315.904	-9.25
316.272	-9.2
316.641	-9.64
317.01	-9.81
317.379	-9.73
317.747	-9.64
318.116	-9.43
318.484	-9.18
318.853	-8.81
319.221	-8.5
319.59	-8.13
319.958	-7.9
320.327	-7.37
320.695	-6.79
321.063	-6.54
321.432	-6.2
321.8	-5.6
322.168	-4.54
322.536	-3.69
322.905	-2.86
323.273	-2.48
323.641	-2.26
324.009	-2.34
324.377	-1.67
324.745	-1.38
325.113	-1.29
325.481	-0.82
325.849	-0.28
326.216	0.13
326.584	0.38
326.952	0.4
327.32	0.78
327.687	1.21
328.055	1.39
328.423	1.49
328.79	1.62
329.158	1.46
329.525	1.7
329.893	1.73
330.26	1.89
330.628	1.98
330.995	2.36
331.362	2.69
331.73	3.38
332.097	3.69
332.464	4.04
332.831	4.41
333.199	4.6
333.566	4.89
333.933	5.04
334.3	5.11
334.667	5.37
335.034	5.43
335.401	5.54
335.768	5.67
336.135	5.76
336.502	6.09
336.868	6.41
337.235	6.59
337.602	6.84
337.969	7.07
338.335	7.33
338.702	7.36
339.069	7.54
339.435	7.69
339.802	7.87
340.168	8.11
340.535	8.42
340.901	8.6
341.267	8.7
341.634	8.91
342	9.1
342.366	9.25
342.733	9.52
343.099	9.71
343.465	9.96
343.831	10.23
344.197	10.29
344.563	10.39
344.929	10.5
345.295	10.67
345.661	11
346.027	11.19
346.393	11.46
346.759	11.55
347.125	11.56
347.491	11.68
347.856	11.71
348.222	11.77
348.588	11.88
348.953	11.95
349.319	12.08
349.684	12.21
350.05	12.38
350.415	12.52
350.781	12.68
351.146	12.7
351.512	12.77
351.877	13
352.242	13.32
352.608	13.43
352.973	13.43
353.338	13.32
353.703	13.39
354.068	13.57
354.433	13.67
354.798	13.87
355.164	14.06
355.528	14.22
355.893	14.36
356.258	14.45
356.623	14.44
356.988	14.51
357.353	14.78
357.718	14.96
358.082	15.05
358.447	15.03
358.812	15.27
359.176	15.42
359.541	15.46
359.905	15.56
360.27	15.72
360.634	15.85
360.999	16
361.363	16.08
361.728	16.06
362.092	16.21
362.456	16.17
362.821	16.14
363.185	16.19
363.549	16.21
363.913	16.35
364.277	16.46
364.641	16.59
365.005	16.6
365.369	16.65
365.733	16.75
366.097	16.95
366.461	16.99
366.825	17.06
367.189	17.21
367.553	17.2
367.916	17.24
368.28	17.34
368.644	17.53
369.007	17.69
369.371	17.87
369.734	17.96
370.098	18.15
370.461	18.27
370.825	18.4
371.188	18.56
371.552	18.69
371.915	18.92
372.278	19.05
372.642	19.21
373.005	19.34
373.368	19.34
373.731	19.39
374.094	19.47
374.457	19.55
374.82	19.64
375.183	19.73
375.546	19.8
375.909	19.9
376.272	19.91
376.635	20.01
376.998	20.03
377.361	20.13
377.723	20.19
378.086	20.28
378.449	20.41
378.811	20.5
379.174	20.55
379.537	20.57
379.899	20.64
380.262	20.64
380.624	20.69
380.987	20.82
381.349	20.84
381.711	20.93
382.074	21.01
382.436	21.1
382.798	21.14
383.16	21.23
383.522	21.29
383.884	21.37
384.247	21.45
384.609	21.52
384.971	21.51
385.333	21.62
385.695	21.65
386.056	21.73
386.418	21.66
386.78	21.7
387.142	21.7
387.504	21.65
387.865	21.67
388.227	21.7
388.589	21.73
388.95	21.76
389.312	21.76
389.673	21.71
390.035	21.69
390.396	21.75
390.758	21.76
391.119	21.77
391.48	21.75
391.842	21.69
392.203	21.65
392.564	21.64
392.925	21.61
393.286	21.63
393.648	21.56
394.009	21.59
394.37	21.57
394.731	21.56
395.092	21.57
395.452	21.56
395.813	21.53
396.174	21.54
396.535	21.55
396.896	21.53
397.257	21.56
397.617	21.56
397.978	21.56
398.338	21.55
398.699	21.57
399.06	21.57
399.42	21.57
399.781	21.63
400.141	21.62
400.501	21.61
400.862	21.55
401.222	21.54
401.582	21.52
401.943	21.51
402.303	21.54
402.663	21.51
403.023	21.54
403.383	21.56
403.743	21.53
404.103	21.55
404.463	21.6
404.823	21.64
405.183	21.61
405.543	21.61
405.903	21.61
406.262	21.59
406.622	21.57
406.982	21.6
407.342	21.6
407.701	21.63
408.061	21.65
408.42	21.67
408.78	21.68
409.139	21.74
409.499	21.75
409.858	21.77
410.217	21.81
410.577	21.8
410.936	21.78
411.295	21.81
411.655	21.78
412.014	21.74
412.373	21.72
412.732	21.66
413.091	21.61
413.45	21.58
413.809	21.54
414.168	21.52
414.527	21.42
414.886	21.33
415.245	21.26
415.603	21.19
415.962	21.09
416.321	21.01
416.679	20.89
417.038	20.78
417.397	20.65
417.755	20.53
418.114	20.46
418.472	20.4
418.831	20.33
419.189	20.26
419.547	20.19
419.906	20.11
420.264	20.05
420.622	19.98
420.981	19.92
421.339	19.87
421.697	19.81
422.055	19.76
422.413	19.73
422.771	19.7
423.129	19.66
423.487	19.65
423.845	19.63
424.203	19.64
424.56	19.65
424.918	19.67
425.276	19.71
425.634	19.7
425.991	19.71
426.349	19.71
426.707	19.73
427.064	19.77
427.422	19.79
427.779	19.84
428.137	19.87
428.494	19.94
428.851	19.96
429.209	20.01
429.566	20.07
429.923	20.06
430.28	20.09
430.637	20.12
430.995	20.15
431.352	20.16
431.709	20.19
432.066	20.23
432.423	20.26
432.78	20.3
433.137	20.34
433.493	20.38
433.85	20.42
434.207	20.42
434.564	20.43
434.92	20.46
435.277	20.47
435.634	20.5
435.99	20.49
436.347	20.51
436.703	20.51
437.06	20.54
437.416	20.59
437.773	20.61
438.129	20.61
438.485	20.62
438.841	20.64
439.198	20.63
439.554	20.6
439.91	20.63
440.266	20.59
440.622	20.57
440.978	20.53
441.334	20.47
441.69	20.45
442.046	20.4
442.402	20.32
442.758	20.25
443.113	20.19
443.469	20.11
443.825	20.06
444.181	20.03
444.536	19.97
444.892	19.9
445.247	19.86
445.603	19.82
445.958	19.78
446.314	19.72
446.669	19.66
447.025	19.63
447.38	19.57
447.735	19.54
448.09	19.5
448.446	19.47
448.801	19.43
449.156	19.39
449.511	19.35
449.866	19.34
450.221	19.37
450.576	19.36
450.931	19.37
451.286	19.34
451.641	19.31
451.995	19.3
452.35	19.3
452.705	19.3
453.06	19.3
453.414	19.33
453.769	19.37
454.123	19.41
454.478	19.43
454.832	19.42
455.187	19.42
455.541	19.41
455.896	19.45
456.25	19.47
456.604	19.5
456.958	19.52
457.313	19.54
457.667	19.56
458.021	19.61
458.375	19.67
458.729	19.75
459.083	19.83
459.437	19.9
459.791	19.99
460.145	20.06
460.499	20.14
460.852	20.19
461.206	20.25
461.56	20.34
461.914	20.43
462.267	20.54
462.621	20.67
462.974	20.83
463.328	20.99
463.681	21.19
464.035	21.38
464.388	21.59
464.742	21.76
465.095	21.93
465.448	22.1
465.801	22.24
466.155	22.36
466.508	22.48
466.861	22.58
467.214	22.69
467.567	22.79
467.92	22.89
468.273	23.02
468.626	23.13
468.979	23.2
469.332	23.29
469.684	23.37
470.037	23.46
470.39	23.51
470.743	23.6
471.095	23.68
471.448	23.72
471.8	23.75
472.153	23.77
472.505	23.78
472.858	23.77
473.21	23.76
473.562	23.73
473.915	23.67
474.267	23.62
474.619	23.54
474.971	23.46
475.324	23.36
475.676	23.27
476.028	23.18
476.38	23.09
476.732	23
477.084	22.89
477.436	22.74
477.787	22.61
478.139	22.45
478.491	22.28
478.843	22.11
479.195	21.96
479.546	21.76
479.898	21.52
480.249	21.29
480.601	21.1
480.952	20.98
481.304	20.88
481.655	20.78
482.007	20.71
482.358	20.65
482.709	20.61
483.061	20.55
483.412	20.51
483.763	20.48
484.114	20.46
484.465	20.45
484.816	20.45
485.167	20.45
485.518	20.46
485.869	20.47
486.22	20.49
486.571	20.52
486.922	20.56
487.272	20.63
487.623	20.73
487.974	20.87
488.324	21.01
488.675	21.16
489.025	21.31
489.376	21.43
489.726	21.57
490.077	21.71
490.427	21.86
490.778	22.02
491.128	22.21
491.478	22.42
491.828	22.64
492.179	22.88
492.529	23.13
492.879	23.39
493.229	23.65
493.579	23.89
493.929	24.14
494.279	24.41
494.629	24.68
494.979	25
495.328	25.35
495.678	25.74
496.028	26.14
496.378	26.53
496.727	26.89
497.077	27.21
497.426	27.54
497.776	27.82
498.125	28.1
498.475	28.38
498.824	28.65
499.174	28.92
499.523	29.16
499.872	29.42
500.221	29.74
500.571	30.04
500.92	30.34
501.269	30.61
501.618	30.87
501.967	31.16
502.316	31.4
502.665	31.68
503.014	31.95
503.363	32.15
503.711	32.37
504.06	32.57
504.409	32.8
504.758	32.99
505.106	33.19
505.455	33.4
505.803	33.55
506.152	33.69
506.5	33.82
506.849	34
507.197	34.16
507.546	34.29
507.894	34.41
508.242	34.57
508.59	34.7
508.939	34.81
509.287	34.91
509.635	35.04
509.983	35.13
510.331	35.23
510.679	35.36
511.027	35.44
511.375	35.55
511.723	35.68
512.07	35.8
512.418	35.94
512.766	36.04
513.114	36.14
513.461	36.26
513.809	36.35
514.156	36.41
514.504	36.48
514.851	36.56
515.199	36.62
515.546	36.66
515.893	36.75
516.241	36.81
516.588	36.9
516.935	36.95
517.282	37.01
517.63	37.08
517.977	37.12
518.324	37.21
518.671	37.29
519.018	37.31
519.365	37.35
519.711	37.36
520.058	37.38
520.405	37.44
520.752	37.48
521.099	37.55
521.445	37.62
521.792	37.67
522.138	37.71
522.485	37.78
522.832	37.86
523.178	37.9
523.524	37.97
523.871	38
524.217	38.02
524.563	38.03
524.91	38.08
525.256	38.13
525.602	38.15
525.948	38.19
526.294	38.2
526.64	38.22
526.986	38.25
527.332	38.27
527.678	38.29
528.024	38.32
528.37	38.35
528.716	38.36
529.061	38.4
529.407	38.44
529.753	38.47
530.098	38.49
530.444	38.52
530.789	38.53
531.135	38.55
531.48	38.63
531.826	38.68
532.171	38.72
532.516	38.75
532.862	38.79
533.207	38.84
533.552	38.89
533.897	38.95
534.242	38.98
534.587	39.03
534.932	39.08
535.277	39.1
535.622	39.13
535.967	39.2
536.312	39.24
536.657	39.29
537.001	39.35
537.346	39.41
537.691	39.46
538.035	39.52
538.38	39.54
538.724	39.51
539.069	39.52
539.413	39.52
539.758	39.55
540.102	39.59
540.446	39.6
540.791	39.63
541.135	39.65
541.479	39.67
541.823	39.68
542.167	39.67
542.512	39.68
542.856	39.68
543.2	39.68
543.543	39.71
543.887	39.74
544.231	39.75
544.575	39.78
544.919	39.83
545.262	39.86
545.606	39.92
545.95	39.99
546.293	40.04
546.637	40.09
546.98	40.17
547.324	40.19
547.667	40.28
548.011	40.33
548.354	40.35
548.697	40.39
549.04	40.42
549.384	40.44
549.727	40.5
550.07	40.55
550.413	40.58
550.756	40.58
551.099	40.59
551.442	40.62
551.785	40.66
552.128	40.69
552.47	40.72
552.813	40.69
553.156	40.73
553.499	40.72
553.841	40.73
554.184	40.73
554.526	40.75
554.869	40.73
555.211	40.74
555.554	40.73
555.896	40.77
556.238	40.77
556.581	40.83
556.923	40.8
557.265	40.81
557.607	40.85
557.949	40.9
558.291	40.92
558.633	40.94
558.975	40.93
559.317	40.9
559.659	40.86
560.001	40.9
560.343	40.87
560.685	40.92
561.026	40.92
561.368	40.9
561.71	40.87
562.051	40.86
562.393	40.84
562.734	40.85
563.076	40.82
563.417	40.82
563.759	40.79
564.1	40.8
564.441	40.79
564.782	40.75
565.124	40.69
565.465	40.69
565.806	40.68
566.147	40.66
566.488	40.72
566.829	40.73
567.17	40.73
567.511	40.7
567.851	40.68
568.192	40.69
568.533	40.71
568.874	40.74
569.214	40.76
569.555	40.76
569.895	40.76
570.236	40.77
570.576	40.8
570.917	40.8
571.257	40.79
571.598	40.8
571.938	40.78
572.278	40.84
572.618	40.82
572.959	40.81
573.299	40.83
573.639	40.79
573.979	40.8
574.319	40.8
574.659	40.82
574.999	40.82
575.339	40.79
575.678	40.79
576.018	40.79
576.358	40.77
576.698	40.75
577.037	40.77
577.377	40.73
577.716	40.69
578.056	40.69
578.395	40.65
578.735	40.65
579.074	40.67
579.413	40.63
579.753	40.61
580.092	40.62
580.431	40.63
580.77	40.66
581.109	40.64
581.448	40.68
581.787	40.71
582.126	40.74
582.465	40.75
582.804	40.74
583.143	40.75
583.482	40.72
583.82	40.7
584.159	40.72
584.498	40.7
584.836	40.72
585.175	40.68
585.514	40.71
585.852	40.72
586.19	40.7
586.529	40.71
586.867	40.74
587.205	40.75
587.544	40.76
587.882	40.71
588.22	40.68
588.558	40.64
588.896	40.6
589.234	40.6
589.572	40.6
589.91	40.59
590.248	40.59
590.586	40.6
590.924	40.61
591.262	40.57
591.599	40.61
591.937	40.62
592.275	40.62
592.612	40.6
592.95	40.56
593.287	40.57
593.625	40.56
593.962	40.53
594.299	40.51
594.637	40.47
594.974	40.51
595.311	40.54
595.648	40.55
595.985	40.53
596.322	40.5
596.659	40.5
596.996	40.49
597.333	40.45
597.67	40.47
598.007	40.44
598.344	40.46
598.681	40.43
599.017	40.44
599.354	40.43
599.691	40.45
600.027	40.47
600.364	40.51
600.7	40.5
601.037	40.53
601.373	40.51
601.71	40.57
602.046	40.56
602.382	40.56
602.718	40.56
603.054	40.56
603.391	40.58
603.727	40.56
604.063	40.54
604.399	40.52
604.735	40.51
605.071	40.53
605.406	40.51
605.742	40.54
606.078	40.5
606.414	40.55
606.749	40.54
607.085	40.51
607.421	40.49
607.756	40.48
608.092	40.47
608.427	40.48
608.762	40.41
609.098	40.36
609.433	40.36
609.768	40.33
610.104	40.3
610.439	40.28
610.774	40.3
611.109	40.31
611.444	40.33
611.779	40.32
612.114	40.32
612.449	40.35
612.784	40.31
613.118	40.34
613.453	40.31
613.788	40.3
614.123	40.3
614.457	40.27
614.792	40.31
615.126	40.3
615.461	40.27
615.795	40.24
616.13	40.28
616.464	40.29
616.798	40.32
617.132	40.4
617.467	40.42
617.801	40.43
618.135	40.39
618.469	40.32
618.803	40.27
619.137	40.25
619.471	40.2
619.805	40.21
620.139	40.16
620.472	40.18
620.806	40.19
621.14	40.15
621.473	40.11
621.807	40.11
622.141	40.09
622.474	40.12
622.808	40.17
623.141	40.13
623.474	40.12
623.808	40.15
624.141	40.16
624.474	40.17
624.807	40.14
625.141	40.19
625.474	40.22
625.807	40.25
626.14	40.23
626.473	40.28
626.806	40.27
627.138	40.32
627.471	40.26
627.804	40.27
628.137	40.33
628.469	40.35
628.802	40.32
629.135	40.28
629.467	40.28
629.8	40.26
630.132	40.3
630.465	40.28
630.797	40.22
631.129	40.19
631.461	40.15
631.794	40.14
632.126	40.13
632.458	40.14
632.79	40.15
633.122	40.18
633.454	40.11
633.786	40.1
634.118	40.1
634.45	40.13
634.781	40.15
635.113	40.07
635.445	40.09
635.777	40.1
636.108	40.16
636.44	40.16
636.771	40.13
637.103	40.11
637.434	40.14
637.765	40.14
638.097	40.15
638.428	40.15
638.759	40.16
639.09	40.12
639.422	40.14
639.753	40.16
640.084	40.19
640.415	40.2
640.746	40.25
641.077	40.22
641.407	40.17
641.738	40.15
642.069	40.15
642.4	40.1
642.73	40.08
643.061	40.06
643.392	40
643.722	40.09
644.053	40.13
644.383	40.13
644.713	40.12
645.044	40.11
645.374	40.12
645.704	40.16
646.034	40.23
646.365	40.17
646.695	40.17
647.025	40.11
647.355	40.12
647.685	40.15
648.015	40.22
648.344	40.24
648.674	40.24
649.004	40.31
649.334	40.35
649.663	40.43
649.993	40.43
650.323	40.48
650.652	40.46
650.982	40.39
651.311	40.4
651.64	40.4
651.97	40.36
652.299	40.34
652.628	40.29
652.958	40.25
653.287	40.33
653.616	40.27
653.945	40.25
654.274	40.24
654.603	40.12
654.932	40.08
655.261	40.1
655.589	40.14
655.918	40.19
656.247	40.31
656.576	40.34
656.904	40.39
657.233	40.44
657.561	40.42
657.89	40.52
658.218	40.49
658.547	40.59
658.875	40.64
659.203	40.65
659.532	40.69
659.86	40.7
660.188	40.74
660.516	40.74
660.844	40.77
661.172	40.75
661.5	40.82
661.828	40.85
662.156	40.89
662.484	40.89
662.811	40.88
663.139	40.76
663.467	40.72
663.794	40.69
664.122	40.58
664.45	40.62
664.777	40.56
665.104	40.57
665.432	40.47
665.759	40.47
666.086	40.48
666.414	40.56
666.741	40.55
667.068	40.51
667.395	40.57
667.722	40.55
668.049	40.59
668.376	40.59
668.703	40.63
669.03	40.61
669.357	40.58
669.683	40.55
670.01	40.62
670.337	40.6
670.663	40.66
670.99	40.71
671.317	40.72
671.643	40.72
671.969	40.8
672.296	40.82
672.622	40.91
672.948	40.84
673.275	40.72
673.601	40.77
673.927	40.74
674.253	40.82
674.579	40.92
674.905	40.97
675.231	40.96
675.557	40.89
675.883	40.93
676.209	40.99
676.534	40.97
676.86	40.91
677.186	40.99
677.511	40.99
677.837	41.08
678.162	41.11
678.488	41.22
678.813	41.17
679.139	41.17
679.464	41.15
679.789	41.24
680.114	41.28
680.44	41.4
680.765	41.41
681.09	41.37
681.415	41.39
681.74	41.4
682.065	41.42
682.39	41.45
682.714	41.44
683.039	41.41
683.364	41.51
683.689	41.53
684.013	41.52
684.338	41.57
684.662	41.54
684.987	41.48
685.311	41.38
685.636	41.42
685.96	41.44
686.284	41.41
686.608	41.39
686.933	41.43
687.257	41.36
687.581	41.38
687.905	41.43
688.229	41.38
688.553	41.4
688.877	41.48
689.201	41.47
689.524	41.43
689.848	41.5
690.172	41.49
690.496	41.61
690.819	41.59
691.143	41.5
691.466	41.47
691.79	41.49
692.113	41.5
692.436	41.42
692.76	41.33
693.083	41.35
693.406	41.34
693.729	41.23
694.053	41.13
694.376	41.26
694.699	41.23
695.022	41.43
695.344	41.4
695.667	41.42
695.99	41.48
696.313	41.53
696.636	41.56
696.958	41.53
697.281	41.46
697.604	41.44
697.926	41.53
698.249	41.55
698.571	41.52
698.893	41.55
699.216	41.57
699.538	41.59
699.86	41.5
700.182	41.44
700.504	41.53
700.827	41.56
701.149	41.49
701.471	41.45
701.793	41.25
702.114	41.22
702.436	41.1
702.758	40.96
703.08	40.88
703.401	40.81
703.723	40.76
704.045	40.68
704.366	40.75
704.688	40.63
705.009	40.63
705.331	40.73
705.652	40.63
705.973	40.78
706.294	40.89
706.616	40.98
706.937	41.13
707.258	41.19
707.579	41.2
707.9	41.24
708.221	41.33
708.542	41.32
708.863	41.45
709.183	41.59
709.504	41.68
709.825	41.76
710.145	41.7
710.466	41.74
710.787	41.77
711.107	41.79
711.427	41.95
711.748	41.99
712.068	41.85
712.388	41.95
712.709	41.89
713.029	41.91
713.349	41.94
713.669	41.92
713.989	41.96
714.309	42.09
714.629	42.03
714.949	42.07
715.269	42.26
715.589	42.22
715.908	42.13
716.228	42.16
716.548	42.17
716.867	42.22
717.187	42.29
717.506	42.43
717.826	42.38
718.145	42.25
718.465	42.27
718.784	42.38
719.103	42.36
719.422	42.47
719.741	42.47
720.061	42.59
720.38	42.64
720.699	42.65
721.018	42.5
721.336	42.57
721.655	42.5
721.974	42.45
722.293	42.5
722.612	42.6
722.93	42.64
723.249	42.66
723.567	42.81
723.886	42.83
724.204	42.85
724.523	42.93
724.841	43.16
725.159	43.32
725.477	43.58
725.796	43.76
726.114	43.91
726.432	44.06
726.75	44.11
727.068	44.17
727.386	44.36
727.704	44.52
728.022	44.66
728.339	44.66
728.657	44.71
728.975	44.77
729.292	44.82
729.61	44.86
729.928	44.97
730.245	45.01
730.562	45.09
730.88	45.21
731.197	45.25
731.514	45.26
731.832	45.2
732.149	45.19
732.466	45.2
732.783	45.12
733.1	45.17
733.417	45.28
733.734	45.44
734.051	45.44
734.368	45.61
734.684	45.64
735.001	45.77
735.318	45.82
735.634	45.87
735.951	46.01
736.268	46.21
736.584	46.33
736.9	46.49
737.217	46.7
737.533	46.8
737.849	46.98
738.166	47.03
738.482	47.1
738.798	47.22
739.114	47.49
739.43	47.68
739.746	47.75
740.062	47.79
740.378	47.72
740.693	47.78
741.009	47.87
741.325	48.16
741.641	48.27
741.956	48.44
742.272	48.68
742.587	48.79
742.903	48.85
743.218	48.91
743.533	48.86
743.849	48.77
744.164	48.74
744.479	48.73
744.794	48.73
745.109	48.82
745.424	48.78
745.739	48.71
746.054	48.73
746.369	48.72
746.684	48.77
746.999	49.1
747.313	49.33
747.628	49.37
747.943	49.26
748.257	49.32
748.572	49.42
748.886	49.34
749.201	49.37
749.515	49.43
749.829	49.64
750.144	49.7
750.458	49.84
750.772	49.85
751.086	49.97
751.4	50.14
751.714	50.22
752.028	50.4
752.342	50.61
752.656	50.72
752.97	50.78
753.284	50.84
753.597	50.69
753.911	50.54
754.225	50.65
754.538	50.72
754.852	50.83
755.165	50.88
755.478	50.92
755.792	51
756.105	50.99
756.418	50.82
756.731	51.14
757.045	51.24
757.358	51.4
757.671	51.48
757.984	51.44
758.297	51.65
758.609	51.81
758.922	51.7
759.235	51.66
759.548	51.71
759.86	51.63
760.173	51.68
760.486	51.62
760.798	51.45
761.111	51.5
761.423	51.49
761.735	51.47
762.048	51.49
762.36	51.5
762.672	51.59
762.984	51.71
763.296	51.67
763.608	51.67
763.92	51.65
764.232	51.67
764.544	51.76
764.856	51.72
765.168	51.65
765.48	51.76
765.791	51.87
766.103	52.05
766.414	52.15
766.726	52.26
767.037	52.52
767.349	52.76
767.66	52.9
767.972	53.2
768.283	53.3
768.594	53.54
768.905	53.59
769.216	53.76
769.527	53.94
769.838	54.04
770.149	54.42
770.46	54.88
770.771	54.97
771.082	55.14
771.393	55.29
771.703	55.14
772.014	54.91
772.324	55.08
772.635	55.18
772.945	55.41
773.256	55.61
773.566	55.68
773.877	55.7
774.187	55.93
774.497	55.85
774.807	55.86
775.117	56.11
775.427	56.24
775.737	56.27
776.047	56.26
776.357	56.27
776.667	56.2
776.977	56.19
777.287	56.46
777.596	56.59
777.906	56.62
778.216	57.17
778.525	57.38
778.835	57.51
779.144	57.58
779.453	57.69
779.763	57.63
780.072	57.7
780.381	57.94
780.69	57.68
781	57.87
781.309	58.07
781.618	58.09
781.927	58.39
782.235	58.65
782.544	58.79
782.853	58.8
783.162	58.71
783.471	58.75
783.779	58.78
784.088	58.82
784.396	58.98
784.705	58.98
785.013	59.2
785.322	59.05
785.63	58.69
785.938	58.47
786.246	58.55
786.554	58.4
786.863	58.37
787.171	58.53
787.479	58.41
787.787	58.51
788.094	58.51
788.402	58.4
788.71	58.36
789.018	58.52
789.326	58.76
789.633	59.01
789.941	59.07
790.248	59.08
790.556	59.24
790.863	58.94
791.171	58.9
791.478	58.95
791.785	59.12
792.092	59.4
792.399	60
792.707	60.12
793.014	60.08
793.321	60.1
793.628	60.1
793.934	60.17
794.241	60.06
794.548	60.05
794.855	59.8
795.161	59.84
795.468	59.66
795.775	59.91
796.081	59.8
796.388	59.51
796.694	59.62
797	59.25
797.307	59.55
797.613	59.54
797.919	59.41
798.225	59.43
798.531	59.62
798.837	59.41
799.143	59.33
799.449	59.75
799.755	59.89
800.061	60.16
800.367	60.43
800.672	60.86
800.978	61.12
801.284	61.7
801.589	61.89
801.895	61.73
802.2	61.59
802.506	61.52
802.811	61.51
803.116	61.46
803.421	61.76
803.727	62.16
804.032	62.33
804.337	62.33
804.642	62.32
804.947	62.45
805.252	62.65
805.556	62.83
805.861	62.66
806.166	62.6
806.471	62.42
806.775	62.13
807.08	62.08
807.384	62.12
807.689	61.97
807.993	61.78
808.298	62.15
808.602	61.92
808.906	62.5
809.211	63.02
809.515	62.98
809.819	63.16
810.123	62.95
810.427	62.92
810.731	63.12
811.035	63.18
811.338	62.98
811.642	63.13
811.946	63.22
812.25	63.09
812.553	62.9
812.857	62.91
813.16	63.46
813.464	63.38
813.767	63.46
814.07	63.5
814.374	63.42
814.677	63.4
814.98	63.36
815.283	62.7
815.586	62.45
815.889	62.34
816.192	62.36
816.495	62.25
816.798	62.14
817.101	62.06
817.404	61.83
817.706	61.76
818.009	61
818.312	60.41
818.614	60.03
818.917	59.43
819.219	58.4
819.521	57.65
819.824	56.65
820.126	55.76
820.428	55
820.73	54.57
821.032	54.17
821.334	53.98
821.636	53.84
821.938	53.65
822.24	53.5
822.542	53.43
822.844	53.33
823.145	53.23
823.447	53.16
823.749	53.14
824.05	52.97
824.352	52.98
824.653	52.96
824.955	52.88
825.256	52.85
825.557	52.87
825.858	52.8
826.16	52.88
826.461	52.97
826.762	53.21
827.063	53.5
827.364	53.75
827.665	53.97
827.965	54.24
828.266	54.59
828.567	54.96
828.868	55.08
829.168	55.36
829.469	55.68
829.769	55.86
830.07	56
830.37	56.54
830.67	56.8
830.971	57.09
831.271	57.55
831.571	57.84
831.871	58.1
832.171	58.22
832.471	58.41
832.771	58.59
833.071	58.64
833.371	58.71
833.671	59.09
833.971	59.17
834.27	59.08
834.57	59.02
834.869	58.98
835.169	59.23
835.468	59.38
835.768	59.48
836.067	59.66
836.367	59.83
836.666	59.7
836.965	59.64
837.264	59.97
837.563	60.37
837.862	60.81
838.161	61.4
838.46	61.97
838.759	62.68
839.058	63.38
839.356	64.36
839.655	64.81
839.954	65.4
840.252	65.92
840.551	66.46
840.849	66.85
841.148	67.18
841.446	67.3
841.744	67.86
842.043	67.74
842.341	68.23
842.639	68.52
842.937	68.81
843.235	69.66
843.533	70.54
843.831	71.37
844.129	72.62
844.427	73.74
844.724	74.85
845.022	75.62
845.32	76.51
845.617	76.95
845.915	77.18
846.212	76.93
846.51	77.22
846.807	77.4
847.104	77.87
847.402	78.04
847.699	77.62
847.996	76.6
848.293	77.57
848.59	76.88
848.887	76.75
849.184	76.93
849.481	76.65
849.778	76.82
850.074	76.31
850.371	75.55
850.668	75.45
850.964	74.69
851.261	74.37
851.557	74
851.854	74.44
852.15	74.63
852.446	74.36
852.743	74.14
853.039	74.75
853.335	75.16
853.631	75.89
853.927	76.6
854.223	77.23
854.519	77.5
854.815	78.27
855.111	79.03
855.406	79.69
855.702	80.53
855.998	79.97
856.293	79.93
856.589	80.3
856.884	79.97
857.18	79.96
857.475	79.8
857.77	80.41
858.066	80.28
858.361	80.6
858.656	80.77
858.951	81.04
859.246	80.1
859.541	80.15
859.836	80.55
860.131	79.89
860.426	79.3
860.72	78.49
861.015	78.04
861.31	77.06
861.604	77.68
861.899	77.89
862.193	78.12
862.487	78.19
862.782	78.74
863.076	78.97
863.37	79.69
863.664	80.14
863.959	80.12
864.253	79.9
864.547	80.06
864.841	81.06
865.135	81.27
865.428	82.07
865.722	81.6
866.016	80.33
866.31	80.22
866.603	79.7
866.897	79.55
867.19	79.08
867.484	79.63
867.777	77.99
868.07	78.3
868.364	78.61
868.657	79.17
868.95	78.64
869.243	78.24
869.536	77.84
869.829	77.73
870.122	77.66
870.415	77.5
870.708	77.68
871	77.33
871.293	77.26
871.586	77.44
871.878	77.09
872.171	77.88
872.463	79.26
872.756	80.4
873.048	80.16
873.341	80.82
873.633	81.07
873.925	82.2
874.217	81.53
874.509	80.91
874.801	80.46
875.093	80.36
875.385	80.93
875.677	80.85
875.969	81
