Data from pcis_c_m2_p1_Reflection_5.txt Node
Date: Wed Jul 12 17:31:55 ART 2017
User: rodoncho
Spectrometer: USB2E3644
Trigger mode: 4
Integration Time (sec): 6.000000E-2
Scans to average: 10
Electric dark correction enabled: true
Nonlinearity correction enabled: false
Boxcar width: 10
XAxis mode: Wavelengths
Number of Pixels in Spectrum: 2048
>>>>>Begin Spectral Data<<<<<
178.315	199.06
178.696	195.56
179.076	151.56
179.457	114.61
179.838	138.74
180.218	266.67
180.599	266.67
180.979	500
181.36	-130.8
181.74	-230.63
182.121	-1104.76
182.501	77.22
182.881	78.59
183.262	99.58
183.642	14.14
184.022	428.07
184.402	244.13
184.783	174.73
185.163	176.43
185.543	182.79
185.923	174
186.303	172.12
186.683	159.68
187.063	153.01
187.443	143.81
187.823	146.06
188.203	150.17
188.583	150.16
188.963	147.34
189.343	133.03
189.723	129.8
190.102	127.77
190.482	131.81
190.862	132.2
191.242	135.83
191.621	133.97
192.001	132.23
192.38	129.8
192.76	128.2
193.14	128.67
193.519	124
193.898	125.55
194.278	121.28
194.657	122.64
195.037	123.67
195.416	122.98
195.795	120.79
196.175	122.38
196.554	122.02
196.933	119.84
197.312	120.06
197.692	120.71
198.071	123.75
198.45	124.78
198.829	124.82
199.208	125.21
199.587	124.32
199.966	122.65
200.345	123.79
200.724	123.9
201.103	124.63
201.482	124.27
201.86	123.12
202.239	126.66
202.618	125.08
202.997	121.05
203.375	121.41
203.754	121.43
204.133	117.89
204.511	114.88
204.89	113.32
205.269	114.03
205.647	113.61
206.026	111.53
206.404	109.54
206.782	108.04
207.161	108.06
207.539	107.94
207.918	108.69
208.296	109.06
208.674	108.7
209.052	106.53
209.431	107.33
209.809	108.98
210.187	108.86
210.565	109.63
210.943	112.19
211.321	113.23
211.699	112.44
212.077	113.52
212.455	114.41
212.833	116.85
213.211	116.7
213.589	115.72
213.967	116.42
214.345	116.55
214.722	117.62
215.1	116.92
215.478	118.04
215.855	117.55
216.233	116.14
216.611	114.81
216.988	115.09
217.366	115.15
217.743	113.65
218.121	113.23
218.498	112.64
218.876	112.36
219.253	112.89
219.631	115.07
220.008	116.44
220.385	116.76
220.762	117.31
221.14	117.22
221.517	118.77
221.894	118.65
222.271	119.7
222.648	120.52
223.025	120.04
223.402	118.83
223.78	119.56
224.157	120.04
224.533	121.86
224.91	121.76
225.287	122.56
225.664	123.74
226.041	122.13
226.418	123.63
226.795	123.22
227.171	123.69
227.548	123.46
227.925	122.39
228.301	122.9
228.678	122.48
229.055	123.35
229.431	124.54
229.808	124.51
230.184	124.39
230.561	123.1
230.937	123.44
231.313	123.84
231.69	124.51
232.066	125.06
232.442	125.14
232.819	125.06
233.195	123.81
233.571	123.26
233.947	124.58
234.323	124.44
234.699	125.09
235.075	123.09
235.451	123.21
235.827	123.76
236.203	124.8
236.579	125.65
236.955	126.61
237.331	126.05
237.707	127.99
238.083	130.91
238.459	136.12
238.834	144.49
239.21	149.91
239.586	154.24
239.961	159.13
240.337	163.51
240.713	167.02
241.088	169.79
241.464	173.17
241.839	180.89
242.215	188.19
242.59	201.33
242.965	230.76
243.341	287.77
243.716	378.55
244.091	537.7
244.467	832.05
244.842	1339.47
245.217	3895.47
245.592	18654.9
245.967	28866.67
246.343	24287.18
246.718	4061.47
247.093	4045.89
247.468	3583.14
247.843	6349.66
248.218	-11397.53
248.593	-2075.74
248.967	-1148.06
249.342	-896.58
249.717	-945.92
250.092	-951.84
250.467	-1157.16
250.841	-2675.94
251.216	2468.77
251.591	900.09
251.965	567.55
252.34	447.62
252.714	392.61
253.089	348.05
253.463	339.36
253.838	352.71
254.212	358.51
254.587	392.12
254.961	442.51
255.335	605.21
255.71	1298.49
256.084	-1680.72
256.458	-468.91
256.832	-268.22
257.206	-216.19
257.581	-191.23
257.955	-180.39
258.329	-171.65
258.703	-157.9
259.077	-147.6
259.451	-140.15
259.825	-131.69
260.199	-128.2
260.572	-124.76
260.946	-120.82
261.32	-120.44
261.694	-117.36
262.068	-114.7
262.441	-113.58
262.815	-110.18
263.189	-110.2
263.562	-116.81
263.936	-134.42
264.309	-166.91
264.683	-212
265.056	-241.97
265.43	-253.89
265.803	-242.54
266.176	-228.78
266.55	-229.85
266.923	-223.64
267.296	-204.11
267.67	-190.62
268.043	-170.36
268.416	-153.73
268.789	-135.34
269.162	-118.44
269.535	-107.99
269.908	-100.57
270.281	-97.39
270.654	-97.79
271.027	-99.74
271.4	-100.35
271.773	-100.97
272.146	-98.72
272.519	-94.7
272.891	-91.64
273.264	-89.46
273.637	-89.52
274.01	-90.23
274.382	-88.32
274.755	-86.12
275.127	-86.27
275.5	-86.13
275.872	-87.16
276.245	-88.23
276.617	-90.55
276.99	-95.82
277.362	-99.37
277.734	-102.29
278.107	-100.23
278.479	-95.08
278.851	-90.6
279.223	-86.98
279.596	-83.54
279.968	-81.68
280.34	-81.97
280.712	-80.13
281.084	-76.28
281.456	-70.5
281.828	-64.14
282.2	-58.92
282.572	-54.74
282.944	-52.46
283.315	-51.14
283.687	-49.32
284.059	-48.48
284.431	-47.13
284.802	-45.46
285.174	-44.1
285.546	-42.23
285.917	-41.65
286.289	-40.6
286.66	-39.31
287.032	-38.47
287.403	-37.59
287.775	-37.11
288.146	-36.75
288.518	-35.93
288.889	-35.43
289.26	-36.15
289.632	-37.34
290.003	-38.65
290.374	-40.05
290.745	-40.11
291.116	-39.57
291.487	-38.76
291.858	-37.04
292.229	-35.81
292.6	-34.4
292.971	-33.19
293.342	-31.33
293.713	-28.65
294.084	-26.96
294.455	-25.94
294.826	-24.8
295.196	-24.85
295.567	-24.61
295.938	-23.95
296.308	-23.84
296.679	-22.88
297.05	-21.8
297.42	-21.03
297.791	-19.89
298.161	-18.47
298.532	-17.51
298.902	-16.84
299.272	-16.15
299.643	-15.75
300.013	-15.47
300.383	-14.94
300.754	-14.26
301.124	-14.11
301.494	-14.52
301.864	-14.98
302.234	-15.15
302.604	-15.86
302.974	-15.88
303.344	-15.68
303.714	-15.49
304.084	-15.22
304.454	-15.18
304.824	-14.4
305.194	-13.8
305.563	-13.49
305.933	-12.98
306.303	-12.21
306.673	-11.4
307.042	-10.85
307.412	-9.93
307.781	-9.01
308.151	-8.14
308.521	-7.54
308.89	-7.21
309.259	-6.43
309.629	-5.59
309.998	-5.08
310.368	-4.53
310.737	-4.1
311.106	-3.6
311.475	-3.13
311.845	-2.64
312.214	-2.12
312.583	-1.86
312.952	-1.54
313.321	-1.47
313.69	-1.28
314.059	-1.38
314.428	-1.64
314.797	-1.99
315.166	-2.47
315.535	-2.89
315.904	-3.35
316.272	-3.88
316.641	-3.88
317.01	-4.16
317.379	-4.35
317.747	-4.34
318.116	-3.84
318.484	-3.36
318.853	-3.2
319.221	-3.23
319.59	-3.19
319.958	-3.31
320.327	-2.93
320.695	-2.53
321.063	-1.94
321.432	-1.58
321.8	-1.14
322.168	-0.18
322.536	0.88
322.905	1.71
323.273	2.26
323.641	2.72
324.009	2.96
324.377	3.11
324.745	3.27
325.113	3.32
325.481	3.81
325.849	4.34
326.216	4.75
326.584	5.11
326.952	5.52
327.32	6.04
327.687	6.72
328.055	7.02
328.423	7.35
328.79	7.56
329.158	7.51
329.525	7.79
329.893	7.81
330.26	7.69
330.628	7.67
330.995	7.73
331.362	7.98
331.73	8.53
332.097	8.95
332.464	9.39
332.831	9.84
333.199	10.01
333.566	10.05
333.933	9.98
334.3	10.02
334.667	10.25
335.034	10.26
335.401	10.18
335.768	10.07
336.135	10.09
336.502	10.18
336.868	10.55
337.235	10.69
337.602	11.03
337.969	11.54
338.335	11.81
338.702	12.17
339.069	12.43
339.435	12.55
339.802	12.76
340.168	13.15
340.535	13.42
340.901	13.47
341.267	13.68
341.634	14.13
342	14.49
342.366	14.71
342.733	14.99
343.099	15.2
343.465	15.36
343.831	15.66
344.197	15.9
344.563	16.09
344.929	16.42
345.295	16.62
345.661	16.7
346.027	16.94
346.393	17.05
346.759	17.15
347.125	17.25
347.491	17.38
347.856	17.39
348.222	17.43
348.588	17.5
348.953	17.44
349.319	17.57
349.684	17.63
350.05	17.82
350.415	17.94
350.781	18.13
351.146	18.4
351.512	18.43
351.877	18.53
352.242	18.56
352.608	18.61
352.973	18.64
353.338	18.67
353.703	18.65
354.068	18.78
354.433	18.94
354.798	19.19
355.164	19.37
355.528	19.36
355.893	19.43
356.258	19.57
356.623	19.85
356.988	19.9
357.353	20.07
357.718	20.04
358.082	20.17
358.447	20.16
358.812	20.16
359.176	20.3
359.541	20.37
359.905	20.53
360.27	20.61
360.634	20.78
360.999	20.82
361.363	20.99
361.728	21.04
362.092	21.06
362.456	21.08
362.821	21.09
363.185	21.22
363.549	21.43
363.913	21.58
364.277	21.66
364.641	21.82
365.005	21.96
365.369	22.16
365.733	22.26
366.097	22.51
366.461	22.62
366.825	22.78
367.189	22.91
367.553	23.05
367.916	23.25
368.28	23.29
368.644	23.48
369.007	23.68
369.371	23.88
369.734	24
370.098	24.15
370.461	24.28
370.825	24.37
371.188	24.4
371.552	24.52
371.915	24.67
372.278	24.77
372.642	24.84
373.005	25.01
373.368	25.1
373.731	25.14
374.094	25.3
374.457	25.28
374.82	25.37
375.183	25.39
375.546	25.47
375.909	25.58
376.272	25.61
376.635	25.63
376.998	25.67
377.361	25.78
377.723	25.85
378.086	25.93
378.449	26.03
378.811	26.11
379.174	26.18
379.537	26.25
379.899	26.33
380.262	26.45
380.624	26.43
380.987	26.5
381.349	26.54
381.711	26.6
382.074	26.72
382.436	26.8
382.798	26.88
383.16	26.83
383.522	26.93
383.884	27.08
384.247	27.19
384.609	27.23
384.971	27.28
385.333	27.3
385.695	27.35
386.056	27.45
386.418	27.45
386.78	27.52
387.142	27.55
387.504	27.59
387.865	27.59
388.227	27.65
388.589	27.7
388.95	27.7
389.312	27.73
389.673	27.79
390.035	27.81
390.396	27.89
390.758	27.95
391.119	28.01
391.48	28.02
391.842	27.97
392.203	28
392.564	28.02
392.925	28.08
393.286	28.12
393.648	28.14
394.009	28.26
394.37	28.22
394.731	28.22
395.092	28.22
395.452	28.28
395.813	28.32
396.174	28.34
396.535	28.45
396.896	28.46
397.257	28.52
397.617	28.57
397.978	28.64
398.338	28.72
398.699	28.69
399.06	28.75
399.42	28.78
399.781	28.81
400.141	28.8
400.501	28.77
400.862	28.78
401.222	28.79
401.582	28.78
401.943	28.84
402.303	28.88
402.663	28.95
403.023	28.9
403.383	28.89
403.743	28.9
404.103	28.89
404.463	28.94
404.823	28.92
405.183	28.94
405.543	28.9
405.903	28.87
406.262	28.89
406.622	28.85
406.982	28.88
407.342	28.87
407.701	28.94
408.061	28.93
408.42	28.93
408.78	28.93
409.139	28.88
409.499	28.9
409.858	28.88
410.217	28.85
410.577	28.88
410.936	28.89
411.295	28.87
411.655	28.78
412.014	28.74
412.373	28.67
412.732	28.63
413.091	28.53
413.45	28.47
413.809	28.39
414.168	28.31
414.527	28.23
414.886	28.15
415.245	28
415.603	27.92
415.962	27.8
416.321	27.7
416.679	27.62
417.038	27.5
417.397	27.42
417.755	27.32
418.114	27.23
418.472	27.14
418.831	27.08
419.189	27.02
419.547	26.94
419.906	26.89
420.264	26.8
420.622	26.71
420.981	26.65
421.339	26.58
421.697	26.51
422.055	26.45
422.413	26.38
422.771	26.34
423.129	26.31
423.487	26.29
423.845	26.25
424.203	26.22
424.56	26.19
424.918	26.13
425.276	26.09
425.634	26.06
425.991	26
426.349	25.95
426.707	25.91
427.064	25.87
427.422	25.81
427.779	25.75
428.137	25.71
428.494	25.67
428.851	25.6
429.209	25.53
429.566	25.44
429.923	25.37
430.28	25.3
430.637	25.22
430.995	25.13
431.352	25.07
431.709	25
432.066	24.98
432.423	24.94
432.78	24.89
433.137	24.83
433.493	24.76
433.85	24.67
434.207	24.58
434.564	24.47
434.92	24.37
435.277	24.27
435.634	24.18
435.99	24.05
436.347	23.94
436.703	23.82
437.06	23.72
437.416	23.58
437.773	23.47
438.129	23.35
438.485	23.29
438.841	23.2
439.198	23.11
439.554	23.01
439.91	22.9
440.266	22.8
440.622	22.69
440.978	22.59
441.334	22.49
441.69	22.4
442.046	22.27
442.402	22.14
442.758	22.01
443.113	21.88
443.469	21.78
443.825	21.66
444.181	21.56
444.536	21.47
444.892	21.39
445.247	21.3
445.603	21.24
445.958	21.15
446.314	21.07
446.669	21
447.025	20.92
447.38	20.85
447.735	20.79
448.09	20.71
448.446	20.63
448.801	20.54
449.156	20.44
449.511	20.36
449.866	20.27
450.221	20.22
450.576	20.13
450.931	20.02
451.286	19.9
451.641	19.81
451.995	19.69
452.35	19.59
452.705	19.51
453.06	19.41
453.414	19.33
453.769	19.22
454.123	19.11
454.478	19.02
454.832	18.92
455.187	18.79
455.541	18.64
455.896	18.47
456.25	18.29
456.604	18.17
456.958	18.05
457.313	17.95
457.667	17.84
458.021	17.74
458.375	17.66
458.729	17.62
459.083	17.54
459.437	17.47
459.791	17.4
460.145	17.33
460.499	17.28
460.852	17.21
461.206	17.16
461.56	17.1
461.914	17.04
462.267	16.96
462.621	16.9
462.974	16.85
463.328	16.81
463.681	16.77
464.035	16.68
464.388	16.61
464.742	16.54
465.095	16.46
465.448	16.4
465.801	16.3
466.155	16.22
466.508	16.16
466.861	16.09
467.214	16.02
467.567	15.93
467.92	15.86
468.273	15.79
468.626	15.71
468.979	15.61
469.332	15.54
469.684	15.44
470.037	15.36
470.39	15.27
470.743	15.21
471.095	15.14
471.448	15.08
471.8	15.01
472.153	14.94
472.505	14.88
472.858	14.84
473.21	14.77
473.562	14.67
473.915	14.58
474.267	14.5
474.619	14.41
474.971	14.34
475.324	14.23
475.676	14.15
476.028	14.07
476.38	14.01
476.732	13.93
477.084	13.87
477.436	13.8
477.787	13.72
478.139	13.62
478.491	13.52
478.843	13.41
479.195	13.27
479.546	13.1
479.898	12.91
480.249	12.71
480.601	12.56
480.952	12.45
481.304	12.35
481.655	12.26
482.007	12.2
482.358	12.13
482.709	12.07
483.061	12.02
483.412	11.97
483.763	11.91
484.114	11.84
484.465	11.79
484.816	11.73
485.167	11.68
485.518	11.64
485.869	11.62
486.22	11.6
486.571	11.58
486.922	11.56
487.272	11.52
487.623	11.48
487.974	11.41
488.324	11.35
488.675	11.31
489.025	11.28
489.376	11.25
489.726	11.24
490.077	11.22
490.427	11.2
490.778	11.18
491.128	11.17
491.478	11.16
491.828	11.17
492.179	11.15
492.529	11.16
492.879	11.14
493.229	11.1
493.579	11.07
493.929	11.04
494.279	11.02
494.629	10.99
494.979	10.98
495.328	10.97
495.678	10.98
496.028	10.97
496.378	10.96
496.727	10.96
497.077	10.92
497.426	10.92
497.776	10.88
498.125	10.86
498.475	10.83
498.824	10.8
499.174	10.74
499.523	10.71
499.872	10.67
500.221	10.64
500.571	10.62
500.92	10.57
501.269	10.54
501.618	10.51
501.967	10.46
502.316	10.42
502.665	10.39
503.014	10.36
503.363	10.32
503.711	10.28
504.06	10.23
504.409	10.19
504.758	10.12
505.106	10.08
505.455	10.03
505.803	9.97
506.152	9.93
506.5	9.89
506.849	9.86
507.197	9.81
507.546	9.78
507.894	9.73
508.242	9.73
508.59	9.69
508.939	9.65
509.287	9.64
509.635	9.62
509.983	9.6
510.331	9.57
510.679	9.56
511.027	9.53
511.375	9.5
511.723	9.48
512.07	9.46
512.418	9.45
512.766	9.44
513.114	9.44
513.461	9.43
513.809	9.42
514.156	9.39
514.504	9.37
514.851	9.33
515.199	9.3
515.546	9.26
515.893	9.22
516.241	9.2
516.588	9.17
516.935	9.13
517.282	9.11
517.63	9.09
517.977	9.06
518.324	9.03
518.671	9.03
519.018	9.01
519.365	9
519.711	8.97
520.058	8.93
520.405	8.91
520.752	8.89
521.099	8.86
521.445	8.85
521.792	8.82
522.138	8.79
522.485	8.76
522.832	8.73
523.178	8.71
523.524	8.69
523.871	8.67
524.217	8.62
524.563	8.54
524.91	8.44
525.256	8.35
525.602	8.29
525.948	8.22
526.294	8.17
526.64	8.14
526.986	8.12
527.332	8.1
527.678	8.08
528.024	8.06
528.37	8.05
528.716	8.03
529.061	8.02
529.407	8
529.753	7.98
530.098	7.94
530.444	7.92
530.789	7.91
531.135	7.89
531.48	7.9
531.826	7.9
532.171	7.92
532.516	7.94
532.862	7.95
533.207	7.96
533.552	7.97
533.897	7.98
534.242	7.98
534.587	7.99
534.932	7.99
535.277	7.97
535.622	7.96
535.967	7.96
536.312	7.96
536.657	7.97
537.001	7.97
537.346	7.98
537.691	7.97
538.035	7.92
538.38	7.89
538.724	7.85
539.069	7.83
539.413	7.82
539.758	7.81
540.102	7.81
540.446	7.79
540.791	7.79
541.135	7.79
541.479	7.78
541.823	7.79
542.167	7.78
542.512	7.79
542.856	7.79
543.2	7.78
543.543	7.77
543.887	7.74
544.231	7.74
544.575	7.75
544.919	7.76
545.262	7.78
545.606	7.8
545.95	7.81
546.293	7.83
546.637	7.83
546.98	7.84
547.324	7.84
547.667	7.86
548.011	7.83
548.354	7.82
548.697	7.8
549.04	7.77
549.384	7.73
549.727	7.69
550.07	7.69
550.413	7.67
550.756	7.66
551.099	7.65
551.442	7.65
551.785	7.62
552.128	7.59
552.47	7.57
552.813	7.56
553.156	7.53
553.499	7.5
553.841	7.48
554.184	7.45
554.526	7.42
554.869	7.38
555.211	7.37
555.554	7.34
555.896	7.31
556.238	7.3
556.581	7.31
556.923	7.28
557.265	7.25
557.607	7.19
557.949	7.17
558.291	7.15
558.633	7.1
558.975	7.07
559.317	7.05
559.659	7.03
560.001	7.01
560.343	6.98
560.685	6.94
561.026	6.92
561.368	6.87
561.71	6.8
562.051	6.77
562.393	6.75
562.734	6.71
563.076	6.67
563.417	6.64
563.759	6.59
564.1	6.56
564.441	6.54
564.782	6.51
565.124	6.48
565.465	6.46
565.806	6.43
566.147	6.4
566.488	6.35
566.829	6.32
567.17	6.29
567.511	6.26
567.851	6.23
568.192	6.19
568.533	6.19
568.874	6.18
569.214	6.17
569.555	6.14
569.895	6.11
570.236	6.1
570.576	6.07
570.917	6.03
571.257	6.01
571.598	5.96
571.938	5.95
572.278	5.93
572.618	5.9
572.959	5.89
573.299	5.86
573.639	5.85
573.979	5.82
574.319	5.8
574.659	5.8
574.999	5.77
575.339	5.73
575.678	5.7
576.018	5.64
576.358	5.59
576.698	5.55
577.037	5.52
577.377	5.45
577.716	5.41
578.056	5.39
578.395	5.34
578.735	5.34
579.074	5.29
579.413	5.24
579.753	5.21
580.092	5.17
580.431	5.16
580.77	5.14
581.109	5.13
581.448	5.09
581.787	5.06
582.126	5.03
582.465	5.04
582.804	5
583.143	5.02
583.482	5.02
583.82	5
584.159	4.99
584.498	4.97
584.836	4.95
585.175	4.93
585.514	4.91
585.852	4.89
586.19	4.89
586.529	4.9
586.867	4.91
587.205	4.92
587.544	4.88
587.882	4.85
588.22	4.82
588.558	4.82
588.896	4.78
589.234	4.77
589.572	4.75
589.91	4.74
590.248	4.7
590.586	4.67
590.924	4.65
591.262	4.62
591.599	4.63
591.937	4.63
592.275	4.59
592.612	4.58
592.95	4.56
593.287	4.53
593.625	4.51
593.962	4.5
594.299	4.5
594.637	4.51
594.974	4.51
595.311	4.49
595.648	4.46
595.985	4.46
596.322	4.43
596.659	4.41
596.996	4.37
597.333	4.35
597.67	4.35
598.007	4.32
598.344	4.33
598.681	4.29
599.017	4.25
599.354	4.24
599.691	4.22
600.027	4.22
600.364	4.23
600.7	4.23
601.037	4.19
601.373	4.16
601.71	4.13
602.046	4.12
602.382	4.13
602.718	4.11
603.054	4.1
603.391	4.09
603.727	4.08
604.063	4.1
604.399	4.08
604.735	4.06
605.071	4.07
605.406	4.07
605.742	4.08
606.078	4.1
606.414	4.14
606.749	4.16
607.085	4.17
607.421	4.19
607.756	4.21
608.092	4.21
608.427	4.21
608.762	4.25
609.098	4.25
609.433	4.24
609.768	4.26
610.104	4.28
610.439	4.3
610.774	4.32
611.109	4.31
611.444	4.32
611.779	4.33
612.114	4.31
612.449	4.28
612.784	4.26
613.118	4.24
613.453	4.21
613.788	4.15
614.123	4.06
614.457	3.99
614.792	3.89
615.126	3.81
615.461	3.77
615.795	3.68
616.13	3.62
616.464	3.58
616.798	3.53
617.132	3.5
617.467	3.47
617.801	3.41
618.135	3.38
618.469	3.38
618.803	3.32
619.137	3.3
619.471	3.29
619.805	3.26
620.139	3.21
620.472	3.16
620.806	3.13
621.14	3.1
621.473	3.08
621.807	3.05
622.141	3.03
622.474	2.97
622.808	2.93
623.141	2.94
623.474	2.95
623.808	2.99
624.141	2.99
624.474	2.97
624.807	3.01
625.141	3.02
625.474	2.98
625.807	2.98
626.14	2.97
626.473	2.97
626.806	2.98
627.138	3.01
627.471	3.01
627.804	3.02
628.137	3.03
628.469	3.06
628.802	3.04
629.135	3.04
629.467	3.05
629.8	3.03
630.132	2.99
630.465	2.94
630.797	2.9
631.129	2.87
631.461	2.85
631.794	2.82
632.126	2.78
632.458	2.79
632.79	2.79
633.122	2.81
633.454	2.8
633.786	2.77
634.118	2.74
634.45	2.73
634.781	2.69
635.113	2.68
635.445	2.63
635.777	2.63
636.108	2.63
636.44	2.61
636.771	2.56
637.103	2.54
637.434	2.5
637.765	2.46
638.097	2.39
638.428	2.34
638.759	2.29
639.09	2.24
639.422	2.19
639.753	2.14
640.084	2.09
640.415	2.07
640.746	2.06
641.077	2.03
641.407	2.01
641.738	2.02
642.069	2
642.4	1.95
642.73	1.92
643.061	1.86
643.392	1.88
643.722	1.95
644.053	1.93
644.383	1.95
644.713	1.91
645.044	1.93
645.374	1.93
645.704	1.93
646.034	1.96
646.365	1.98
646.695	1.97
647.025	1.99
647.355	1.97
647.685	1.95
648.015	1.99
648.344	2.02
648.674	2.01
649.004	2.03
649.334	2.09
649.663	2.13
649.993	2.17
650.323	2.16
650.652	2.13
650.982	2.15
651.311	2.16
651.64	2.2
651.97	2.19
652.299	2.23
652.628	2.21
652.958	2.19
653.287	2.18
653.616	2.16
653.945	2.14
654.274	2.12
654.603	2.1
654.932	2.06
655.261	2.03
655.589	2.05
655.918	2.09
656.247	2.1
656.576	2.12
656.904	2.17
657.233	2.23
657.561	2.24
657.89	2.27
658.218	2.26
658.547	2.25
658.875	2.29
659.203	2.26
659.532	2.26
659.86	2.23
660.188	2.2
660.516	2.23
660.844	2.18
661.172	2.19
661.5	2.17
661.828	2.11
662.156	2.08
662.484	2.01
662.811	1.97
663.139	1.92
663.467	1.87
663.794	1.75
664.122	1.64
664.45	1.56
664.777	1.52
665.104	1.49
665.432	1.44
665.759	1.37
666.086	1.34
666.414	1.33
666.741	1.4
667.068	1.4
667.395	1.39
667.722	1.43
668.049	1.43
668.376	1.43
668.703	1.5
669.03	1.53
669.357	1.52
669.683	1.52
670.01	1.48
670.337	1.52
670.663	1.57
670.99	1.51
671.317	1.51
671.643	1.49
671.969	1.47
672.296	1.46
672.622	1.42
672.948	1.4
673.275	1.35
673.601	1.28
673.927	1.24
674.253	1.22
674.579	1.18
674.905	1.16
675.231	1.13
675.557	1.1
675.883	1.11
676.209	1.15
676.534	1.15
676.86	1.2
677.186	1.22
677.511	1.26
677.837	1.31
678.162	1.29
678.488	1.28
678.813	1.28
679.139	1.34
679.464	1.41
679.789	1.46
680.114	1.51
680.44	1.55
680.765	1.56
681.09	1.56
681.415	1.52
681.74	1.51
682.065	1.53
682.39	1.5
682.714	1.42
683.039	1.36
683.364	1.33
683.689	1.31
684.013	1.24
684.338	1.16
684.662	1.17
684.987	1.23
685.311	1.2
685.636	1.17
685.96	1.06
686.284	0.99
686.608	0.94
686.933	0.87
687.257	0.81
687.581	0.81
687.905	0.8
688.229	0.84
688.553	0.78
688.877	0.75
689.201	0.74
689.524	0.63
689.848	0.62
690.172	0.59
690.496	0.54
690.819	0.5
691.143	0.48
691.466	0.39
691.79	0.28
692.113	0.24
692.436	0.2
692.76	0.2
693.083	0.16
693.406	0.11
693.729	0.12
694.053	0.14
694.376	0.09
694.699	0.12
695.022	0.26
695.344	0.39
695.667	0.54
695.99	0.67
696.313	0.87
696.636	0.96
696.958	1.03
697.281	1.07
697.604	1.12
697.926	1.13
698.249	1.19
698.571	1.2
698.893	1.24
699.216	1.25
699.538	1.26
699.86	1.27
700.182	1.24
700.504	1.23
700.827	1.22
701.149	1.2
701.471	1.14
701.793	0.94
702.114	0.81
702.436	0.6
702.758	0.39
703.08	0.23
703.401	0.02
703.723	-0.2
704.045	-0.35
704.366	-0.47
704.688	-0.58
705.009	-0.66
705.331	-0.61
705.652	-0.62
705.973	-0.63
706.294	-0.67
706.616	-0.66
706.937	-0.61
707.258	-0.59
707.579	-0.57
707.9	-0.49
708.221	-0.39
708.542	-0.39
708.863	-0.37
709.183	-0.32
709.504	-0.29
709.825	-0.21
710.145	-0.12
710.466	-0.03
710.787	-0.05
711.107	-0.14
711.427	-0.14
711.748	-0.19
712.068	-0.28
712.388	-0.3
712.709	-0.28
713.029	-0.22
713.349	-0.27
713.669	-0.31
713.989	-0.24
714.309	-0.21
714.629	-0.21
714.949	-0.31
715.269	-0.28
715.589	-0.27
715.908	-0.26
716.228	-0.25
716.548	-0.26
716.867	-0.29
717.187	-0.3
717.506	-0.25
717.826	-0.17
718.145	-0.12
718.465	-0.03
718.784	0.06
719.103	0.05
719.422	0.03
719.741	0.07
720.061	0.21
720.38	0.41
720.699	0.47
721.018	0.45
721.336	0.51
721.655	0.63
721.974	0.73
722.293	0.93
722.612	1.04
722.93	1.17
723.249	1.31
723.567	1.49
723.886	1.63
724.204	1.78
724.523	2
724.841	2.13
725.159	2.27
725.477	2.42
725.796	2.66
726.114	2.94
726.432	3.09
726.75	3.23
727.068	3.23
727.386	3.27
727.704	3.38
728.022	3.51
728.339	3.68
728.657	3.84
728.975	3.93
729.292	4
729.61	4.08
729.928	4.09
730.245	4.16
730.562	4.25
730.88	4.33
731.197	4.37
731.514	4.51
731.832	4.55
732.149	4.62
732.466	4.61
732.783	4.66
733.1	4.78
733.417	4.87
733.734	5
734.051	5.09
734.368	5.3
734.684	5.44
735.001	5.47
735.318	5.56
735.634	5.7
735.951	5.92
736.268	6.18
736.584	6.38
736.9	6.62
737.217	6.73
737.533	6.94
737.849	7.1
738.166	7.19
738.482	7.46
738.798	7.67
739.114	7.94
739.43	8.12
739.746	8.27
740.062	8.44
740.378	8.52
740.693	8.65
741.009	8.74
741.325	8.84
741.641	9.02
741.956	9.14
742.272	9.23
742.587	9.34
742.903	9.44
743.218	9.6
743.533	9.62
743.849	9.76
744.164	9.74
744.479	9.93
744.794	10.13
745.109	10.23
745.424	10.28
745.739	10.3
746.054	10.23
746.369	10.27
746.684	10.35
746.999	10.41
747.313	10.61
747.628	10.73
747.943	10.83
748.257	10.93
748.572	11.15
748.886	11.33
749.201	11.43
749.515	11.46
749.829	11.54
750.144	11.69
750.458	11.91
750.772	12.11
751.086	12.23
751.4	12.32
751.714	12.33
752.028	12.43
752.342	12.6
752.656	12.8
752.97	12.83
753.284	13.06
753.597	13.4
753.911	13.48
754.225	13.49
754.538	13.61
754.852	13.72
755.165	13.73
755.478	13.54
755.792	13.49
756.105	13.48
756.418	13.49
756.731	13.49
757.045	13.54
757.358	13.57
757.671	13.68
757.984	13.72
758.297	13.86
758.609	14
758.922	14.04
759.235	14.09
759.548	14.2
759.86	14.06
760.173	13.81
760.486	13.6
760.798	13.37
761.111	13.28
761.423	13.16
761.735	13.04
762.048	13.13
762.36	13.17
762.672	13.35
762.984	13.56
763.296	13.58
763.608	13.59
763.92	13.64
764.232	13.63
764.544	13.66
764.856	13.75
765.168	13.73
765.48	13.73
765.791	13.88
766.103	14.02
766.414	14.15
766.726	14.49
767.037	14.79
767.349	15.2
767.66	15.5
767.972	15.92
768.283	16.48
768.594	16.9
768.905	17.19
769.216	17.31
769.527	17.48
769.838	17.97
770.149	18.23
770.46	18.5
770.771	18.9
771.082	19.28
771.393	19.4
771.703	19.65
772.014	19.87
772.324	20.01
772.635	20.36
772.945	20.55
773.256	20.8
773.566	21.07
773.877	21.43
774.187	21.49
774.497	21.45
774.807	21.41
775.117	21.59
775.427	22.07
775.737	22.37
776.047	22.6
776.357	22.57
776.667	22.87
776.977	23.18
777.287	23.18
777.596	23.05
777.906	23.07
778.216	23.3
778.525	23.51
778.835	23.4
779.144	23.39
779.453	23.17
779.763	23.12
780.072	23.42
780.381	23.52
780.69	23.77
781	24.06
781.309	24.1
781.618	24.17
781.927	24.07
782.235	24.05
782.544	23.93
782.853	23.96
783.162	23.9
783.471	23.93
783.779	23.99
784.088	24.38
784.396	24.47
784.705	24.44
785.013	24.36
785.322	24.65
785.63	24.46
785.938	24.65
786.246	24.6
786.554	24.37
786.863	24.3
787.171	24.44
787.479	24.57
787.787	24.74
788.094	24.61
788.402	24.53
788.71	24.9
789.018	24.8
789.326	24.71
789.633	24.9
789.941	24.71
790.248	24.73
790.556	24.59
790.863	24.66
791.171	24.77
791.478	25.02
791.785	25.3
792.092	25.43
792.399	25.84
792.707	26.11
793.014	26.2
793.321	26.07
793.628	25.94
793.934	25.76
794.241	25.48
794.548	25.77
794.855	25.89
795.161	25.59
795.468	25.71
795.775	25.92
796.081	25.68
796.388	25.89
796.694	26.08
797	26.15
797.307	26.39
797.613	26.5
797.919	26.5
798.225	26.31
798.531	26.36
798.837	26.41
799.143	26.56
799.449	26.86
799.755	27.24
800.061	27.44
800.367	27.77
800.672	28.29
800.978	28.34
801.284	28.52
801.589	28.92
801.895	28.97
802.2	29.41
802.506	29.53
802.811	29.32
803.116	29.17
803.421	29.29
803.727	29.37
804.032	29.26
804.337	29.6
804.642	29.8
804.947	30
805.252	30.01
805.556	29.96
805.861	30.12
806.166	30.33
806.471	30.58
806.775	30.64
807.08	30.6
807.384	30.84
807.689	30.95
807.993	30.8
808.298	30.93
808.602	30.7
808.906	30.74
809.211	31.25
809.515	31.56
809.819	31.49
810.123	31.44
810.427	31.73
810.731	31.29
811.035	31.37
811.338	31.67
811.642	31.78
811.946	31.84
812.25	31.72
812.553	31.39
812.857	31.28
813.16	31.51
813.464	31.95
813.767	31.89
814.07	31.64
814.374	31.75
814.677	31.86
814.98	31.76
815.283	31.87
815.586	31.69
815.889	31.66
816.192	31.7
816.495	31.47
816.798	31.05
817.101	30.81
817.404	30.34
817.706	29.63
818.009	28.63
818.312	27.46
818.614	25.89
818.917	24.16
819.219	22.07
819.521	19.71
819.824	17.75
820.126	16.18
820.428	15.18
820.73	14.33
821.032	13.81
821.334	13.39
821.636	13.06
821.938	12.91
822.24	12.74
822.542	12.62
822.844	12.57
823.145	12.46
823.447	12.4
823.749	12.37
824.05	12.19
824.352	12.11
824.653	12.08
824.955	12.09
825.256	12.11
825.557	12.15
825.858	12.4
826.16	12.7
826.461	13.22
826.762	13.7
827.063	14.25
827.364	14.83
827.665	15.36
827.965	15.92
828.266	16.45
828.567	16.81
828.868	17.13
829.168	17.4
829.469	17.85
829.769	18.16
830.07	18.42
830.37	18.9
830.67	19.59
830.971	20.2
831.271	20.93
831.571	21.33
831.871	22.01
832.171	22.53
832.471	22.74
832.771	22.77
833.071	23.07
833.371	23.34
833.671	23.37
833.971	23.63
834.27	23.76
834.57	23.4
834.869	23.27
835.169	23.42
835.468	23.5
835.768	23.32
836.067	23.16
836.367	23.48
836.666	23.91
836.965	24.23
837.264	24.85
837.563	25.33
837.862	26.49
838.161	27.41
838.46	28.02
838.759	29.04
839.058	30.11
839.356	30.82
839.655	31.42
839.954	31.71
840.252	32.26
840.551	32.78
840.849	33.29
841.148	33.83
841.446	34.09
841.744	34.45
842.043	35.31
842.341	36.19
842.639	36.74
842.937	36.96
843.235	37.65
843.533	38.42
843.831	39.61
844.129	40.55
844.427	41.58
844.724	43.09
845.022	44.11
845.32	44.76
845.617	45.88
845.915	46.57
846.212	48.28
846.51	48.76
846.807	49.48
847.104	50.92
847.402	51.83
847.699	52.63
847.996	53.99
848.293	55.05
848.59	55.85
848.887	55.96
849.184	56.83
849.481	56.57
849.778	56.73
850.074	56.1
850.371	56.18
850.668	56.54
850.964	57.25
851.261	57.97
851.557	59.29
851.854	60.23
852.15	60.96
852.446	61.26
852.743	62.22
853.039	62.73
853.335	62.22
853.631	62.78
853.927	63.24
854.223	63.8
854.519	62.89
854.815	61.66
855.111	60.47
855.406	60.12
855.702	61.21
855.998	61.62
856.293	62.79
856.589	63.21
856.884	63.28
857.18	63.53
857.475	63.61
857.77	62.99
858.066	62.08
858.361	62.64
858.656	63.18
858.951	63.34
859.246	62.98
859.541	63.66
859.836	63.24
860.131	63.12
860.426	62.16
860.72	62.91
861.015	63.17
861.31	63.27
861.604	63.75
861.899	63.55
862.193	63.43
862.487	62.82
862.782	63.52
863.076	63.18
863.37	61.97
863.664	61.85
863.959	62.47
864.253	62.84
864.547	62.16
864.841	60.54
865.135	59.27
865.428	59.33
865.722	58.32
866.016	58.18
866.31	56.92
866.603	56.11
866.897	55.47
867.19	55.86
867.484	55.69
867.777	55.42
868.07	55.07
868.364	54.45
868.657	54.11
868.95	53.25
869.243	52.49
869.536	53.02
869.829	52.22
870.122	51.44
870.415	51.41
870.708	51.39
871	51.2
871.293	51.49
871.586	50.95
871.878	51.25
872.171	51.76
872.463	53.75
872.756	54.75
873.048	55.35
873.341	55.56
873.633	56.46
873.925	56.47
874.217	56.14
874.509	56.55
874.801	57.26
875.093	56.76
875.385	57.63
875.677	57.18
875.969	57.91
