Data from pcis_p_m4_p4_Reflection_4.txt Node
Date: Wed Jul 12 17:59:34 ART 2017
User: rodoncho
Spectrometer: USB2E3644
Trigger mode: 4
Integration Time (sec): 6.000000E-2
Scans to average: 10
Electric dark correction enabled: true
Nonlinearity correction enabled: false
Boxcar width: 10
XAxis mode: Wavelengths
Number of Pixels in Spectrum: 2048
>>>>>Begin Spectral Data<<<<<
178.315	-95.39
178.696	-258.33
179.076	-1904.17
179.457	475.44
179.838	268.33
180.218	133.33
180.599	48.55
180.979	-44.44
181.36	90.23
181.74	161.33
182.121	-308.33
182.501	100.16
182.881	111.69
183.262	100.24
183.642	75.93
184.022	32.05
184.402	80.16
184.783	101.49
185.163	116.67
185.543	134.69
185.923	130.83
186.303	137.69
186.683	116.88
187.063	121.08
187.443	122.5
187.823	122.48
188.203	118.98
188.583	120.39
188.963	121.18
189.343	117.44
189.723	115.06
190.102	114.8
190.482	112.8
190.862	116.74
191.242	118.42
191.621	121.01
192.001	124.15
192.38	126.56
192.76	121.38
193.14	120.83
193.519	119.09
193.898	116.61
194.278	117.24
194.657	121.35
195.037	119.55
195.416	118.8
195.795	119.78
196.175	117.57
196.554	118.7
196.933	115.93
197.312	115.9
197.692	115.99
198.071	115.87
198.45	116.05
198.829	116.73
199.208	116.52
199.587	112.87
199.966	111.35
200.345	110.68
200.724	111.21
201.103	111.78
201.482	113.99
201.86	115.07
202.239	115.52
202.618	115.21
202.997	113.43
203.375	111.32
203.754	108.89
204.133	110.31
204.511	109.24
204.89	111.22
205.269	111.22
205.647	111.65
206.026	112.77
206.404	113.63
206.782	113.08
207.161	113.4
207.539	113.94
207.918	114.27
208.296	112.52
208.674	113.39
209.052	112.79
209.431	110.55
209.809	111.98
210.187	111.15
210.565	111.3
210.943	112.73
211.321	115.03
211.699	115.71
212.077	115.41
212.455	115.15
212.833	112.92
213.211	113.4
213.589	113.97
213.967	113.82
214.345	112.41
214.722	111.69
215.1	111.48
215.478	112.39
215.855	113.11
216.233	114.94
216.611	115.49
216.988	117.08
217.366	117.73
217.743	115.23
218.121	114.41
218.498	113.96
218.876	114.28
219.253	114.2
219.631	114.58
220.008	114.24
220.385	115.44
220.762	117.19
221.14	118.26
221.517	119.86
221.894	119.47
222.271	120.15
222.648	122.18
223.025	122.95
223.402	123.33
223.78	123.7
224.157	124.67
224.533	125.11
224.91	124.16
225.287	124.96
225.664	126.15
226.041	126.97
226.418	125.85
226.795	126.71
227.171	125.71
227.548	124.93
227.925	124.84
228.301	124.22
228.678	123.82
229.055	123.15
229.431	122.8
229.808	124.22
230.184	125.08
230.561	124.91
230.937	125.04
231.313	124.08
231.69	122.97
232.066	123.36
232.442	122.35
232.819	121.38
233.195	121.11
233.571	121.55
233.947	121.71
234.323	121.77
234.699	121.18
235.075	121.82
235.451	122.45
235.827	122.58
236.203	123.25
236.579	125.37
236.955	128.4
237.331	130.47
237.707	132.05
238.083	134.95
238.459	138.9
238.834	144.55
239.21	151.88
239.586	159.4
239.961	164.51
240.337	170.88
240.713	177.22
241.088	181.29
241.464	185.26
241.839	194.32
242.215	208.57
242.59	227.04
242.965	273.21
243.341	382.37
243.716	601.78
244.091	1232.95
244.467	3969.58
244.842	-6007.05
245.217	-1625.35
245.592	-1258.88
245.967	-1116.67
246.343	-1210.1
246.718	-1424.85
247.093	-1583.16
247.468	-1759.11
247.843	-1733.9
248.218	-1277.36
248.593	-845.51
248.967	-614.91
249.342	-536.86
249.717	-538.35
250.092	-583.79
250.467	-668.25
250.841	-1095.43
251.216	16731.48
251.591	1129.51
251.965	623.23
252.34	465.31
252.714	411.33
253.089	364.94
253.463	366.32
253.838	377.1
254.212	387.18
254.587	417.77
254.961	505.04
255.335	746.84
255.71	4439.52
256.084	-818.09
256.458	-361.61
256.832	-240.01
257.206	-192.87
257.581	-172.94
257.955	-160
258.329	-150.14
258.703	-140.58
259.077	-130.77
259.451	-123.73
259.825	-116.8
260.199	-113.58
260.572	-109.79
260.946	-102.97
261.32	-101.75
261.694	-98.32
262.068	-96.47
262.441	-94.94
262.815	-93.08
263.189	-93.43
263.562	-99.99
263.936	-113.94
264.309	-132.78
264.683	-159.15
265.056	-176.65
265.43	-180.15
265.803	-177.23
266.176	-171.34
266.55	-169.85
266.923	-166.28
267.296	-158.77
267.67	-149.93
268.043	-136.31
268.416	-124.96
268.789	-114.14
269.162	-99.78
269.535	-91.8
269.908	-87.48
270.281	-84.49
270.654	-83.85
271.027	-86.33
271.4	-86.76
271.773	-86.18
272.146	-86.22
272.519	-81.74
272.891	-79.3
273.264	-78.98
273.637	-78.67
274.01	-79.12
274.382	-78.55
274.755	-77.78
275.127	-78.74
275.5	-79.94
275.872	-81.1
276.245	-81.38
276.617	-83.25
276.99	-88.28
277.362	-92.37
277.734	-93.91
278.107	-92.79
278.479	-89.22
278.851	-85.9
279.223	-83.23
279.596	-82.06
279.968	-82.21
280.34	-84.31
280.712	-82.52
281.084	-76.59
281.456	-70.39
281.828	-64.93
282.2	-58.99
282.572	-54.04
282.944	-50.09
283.315	-48.62
283.687	-47.4
284.059	-46.95
284.431	-46.54
284.802	-45.96
285.174	-44.87
285.546	-43.51
285.917	-43.04
286.289	-42.12
286.66	-40.35
287.032	-39.73
287.403	-39.1
287.775	-38.38
288.146	-37.03
288.518	-36.93
288.889	-37.41
289.26	-38.28
289.632	-39.15
290.003	-40.69
290.374	-42.64
290.745	-43.66
291.116	-43.23
291.487	-42.25
291.858	-41.35
292.229	-40.81
292.6	-39.48
292.971	-38.28
293.342	-36.44
293.713	-34.24
294.084	-33.31
294.455	-32.84
294.826	-32.39
295.196	-32.51
295.567	-32.27
295.938	-31.8
296.308	-31.62
296.679	-30.9
297.05	-30.33
297.42	-29.58
297.791	-28.37
298.161	-27.23
298.532	-26.46
298.902	-25.86
299.272	-25.24
299.643	-24.48
300.013	-23.54
300.383	-23.2
300.754	-22.67
301.124	-22.77
301.494	-22.94
301.864	-22.83
302.234	-22.72
302.604	-22.47
302.974	-21.87
303.344	-21.53
303.714	-21.59
304.084	-21.17
304.454	-20.89
304.824	-20.05
305.194	-19.62
305.563	-19.35
305.933	-18.59
306.303	-17.24
306.673	-16.63
307.042	-16.29
307.412	-15.47
307.781	-14.53
308.151	-13.44
308.521	-13.08
308.89	-12.63
309.259	-12.22
309.629	-11.91
309.998	-11.7
310.368	-11.52
310.737	-11.52
311.106	-11.13
311.475	-10.61
311.845	-10.31
312.214	-9.87
312.583	-9.67
312.952	-9.4
313.321	-9.24
313.69	-9.43
314.059	-10.06
314.428	-10.18
314.797	-10.54
315.166	-11.45
315.535	-11.98
315.904	-12.67
316.272	-13.01
316.641	-13.19
317.01	-13.05
317.379	-13.21
317.747	-13.19
318.116	-12.83
318.484	-12.23
318.853	-11.72
319.221	-11.53
319.59	-11.11
319.958	-10.98
320.327	-10.63
320.695	-10.23
321.063	-9.92
321.432	-9.23
321.8	-8.46
322.168	-7.64
322.536	-6.7
322.905	-5.54
323.273	-4.84
323.641	-4.34
324.009	-4
324.377	-3.63
324.745	-3.48
325.113	-3.17
325.481	-2.7
325.849	-2.3
326.216	-1.86
326.584	-1.57
326.952	-1.37
327.32	-1.09
327.687	-0.85
328.055	-0.65
328.423	-0.36
328.79	-0.12
329.158	-0.04
329.525	0.14
329.893	0.37
330.26	0.41
330.628	0.25
330.995	0.37
331.362	0.68
331.73	1.21
332.097	1.54
332.464	1.84
332.831	2.12
333.199	2.31
333.566	2.46
333.933	2.45
334.3	2.43
334.667	2.73
335.034	2.89
335.401	2.91
335.768	2.9
336.135	3.01
336.502	3.19
336.868	3.54
337.235	3.7
337.602	3.87
337.969	4.06
338.335	4.33
338.702	4.54
339.069	4.74
339.435	4.9
339.802	5.04
340.168	5.17
340.535	5.4
340.901	5.63
341.267	5.82
341.634	6.16
342	6.4
342.366	6.6
342.733	6.75
343.099	7.04
343.465	7.42
343.831	7.7
344.197	7.72
344.563	7.76
344.929	7.86
345.295	7.93
345.661	8.18
346.027	8.37
346.393	8.41
346.759	8.41
347.125	8.59
347.491	8.74
347.856	8.97
348.222	9.03
348.588	9.03
348.953	9.08
349.319	9.12
349.684	9.25
350.05	9.38
350.415	9.56
350.781	9.75
351.146	9.95
351.512	9.97
351.877	10.15
352.242	10.24
352.608	10.32
352.973	10.46
353.338	10.51
353.703	10.54
354.068	10.66
354.433	10.84
354.798	10.97
355.164	11.04
355.528	11.02
355.893	11.11
356.258	11.33
356.623	11.49
356.988	11.66
357.353	11.83
357.718	11.98
358.082	12.11
358.447	12.03
358.812	11.97
359.176	12.04
359.541	12.12
359.905	12.16
360.27	12.36
360.634	12.47
360.999	12.55
361.363	12.72
361.728	12.78
362.092	12.88
362.456	12.84
362.821	12.89
363.185	12.99
363.549	13.12
363.913	13.07
364.277	13.05
364.641	13.06
365.005	13.11
365.369	13.14
365.733	13.19
366.097	13.42
366.461	13.52
366.825	13.63
367.189	13.77
367.553	13.89
367.916	13.91
368.28	13.97
368.644	14.11
369.007	14.17
369.371	14.25
369.734	14.29
370.098	14.4
370.461	14.46
370.825	14.55
371.188	14.66
371.552	14.83
371.915	14.85
372.278	15
372.642	15.09
373.005	15.15
373.368	15.16
373.731	15.16
374.094	15.15
374.457	15.15
374.82	15.12
375.183	15.14
375.546	15.19
375.909	15.24
376.272	15.21
376.635	15.23
376.998	15.28
377.361	15.29
377.723	15.35
378.086	15.44
378.449	15.49
378.811	15.51
379.174	15.56
379.537	15.67
379.899	15.7
380.262	15.72
380.624	15.7
380.987	15.75
381.349	15.78
381.711	15.85
382.074	15.91
382.436	16.03
382.798	16.08
383.16	16.02
383.522	16.03
383.884	16.11
384.247	16.18
384.609	16.19
384.971	16.24
385.333	16.22
385.695	16.24
386.056	16.22
386.418	16.21
386.78	16.18
387.142	16.14
387.504	16.09
387.865	16.04
388.227	16.06
388.589	16.07
388.95	16.02
389.312	15.95
389.673	15.94
390.035	15.87
390.396	15.8
390.758	15.8
391.119	15.78
391.48	15.73
391.842	15.68
392.203	15.67
392.564	15.6
392.925	15.58
393.286	15.53
393.648	15.53
394.009	15.49
394.37	15.47
394.731	15.47
395.092	15.46
395.452	15.47
395.813	15.44
396.174	15.38
396.535	15.37
396.896	15.38
397.257	15.32
397.617	15.29
397.978	15.29
398.338	15.34
398.699	15.34
399.06	15.31
399.42	15.27
399.781	15.22
400.141	15.22
400.501	15.17
400.862	15.17
401.222	15.1
401.582	15.08
401.943	15.03
402.303	15.02
402.663	14.98
403.023	14.96
403.383	14.96
403.743	14.94
404.103	14.93
404.463	14.95
404.823	14.96
405.183	14.94
405.543	14.91
405.903	14.84
406.262	14.82
406.622	14.8
406.982	14.78
407.342	14.78
407.701	14.76
408.061	14.71
408.42	14.66
408.78	14.62
409.139	14.61
409.499	14.58
409.858	14.56
410.217	14.52
410.577	14.48
410.936	14.45
411.295	14.43
411.655	14.38
412.014	14.27
412.373	14.2
412.732	14.12
413.091	14.04
413.45	13.98
413.809	13.91
414.168	13.81
414.527	13.72
414.886	13.61
415.245	13.53
415.603	13.47
415.962	13.36
416.321	13.25
416.679	13.15
417.038	13.04
417.397	12.92
417.755	12.83
418.114	12.75
418.472	12.67
418.831	12.58
419.189	12.52
419.547	12.47
419.906	12.4
420.264	12.33
420.622	12.27
420.981	12.21
421.339	12.16
421.697	12.1
422.055	12.04
422.413	12.01
422.771	11.97
423.129	11.95
423.487	11.93
423.845	11.93
424.203	11.9
424.56	11.9
424.918	11.9
425.276	11.91
425.634	11.89
425.991	11.89
426.349	11.89
426.707	11.88
427.064	11.87
427.422	11.87
427.779	11.88
428.137	11.89
428.494	11.91
428.851	11.9
429.209	11.88
429.566	11.87
429.923	11.81
430.28	11.75
430.637	11.72
430.995	11.68
431.352	11.63
431.709	11.63
432.066	11.62
432.423	11.6
432.78	11.58
433.137	11.55
433.493	11.52
433.85	11.52
434.207	11.48
434.564	11.45
434.92	11.41
435.277	11.34
435.634	11.32
435.99	11.27
436.347	11.21
436.703	11.18
437.06	11.14
437.416	11.12
437.773	11.11
438.129	11.08
438.485	11.06
438.841	11.04
439.198	11.02
439.554	10.99
439.91	10.96
440.266	10.91
440.622	10.88
440.978	10.84
441.334	10.77
441.69	10.75
442.046	10.72
442.402	10.69
442.758	10.66
443.113	10.61
443.469	10.57
443.825	10.55
444.181	10.54
444.536	10.53
444.892	10.5
445.247	10.48
445.603	10.46
445.958	10.46
446.314	10.46
446.669	10.44
447.025	10.43
447.38	10.42
447.735	10.42
448.09	10.42
448.446	10.42
448.801	10.43
449.156	10.42
449.511	10.41
449.866	10.41
450.221	10.44
450.576	10.43
450.931	10.45
451.286	10.44
451.641	10.43
451.995	10.42
452.35	10.44
452.705	10.43
453.06	10.44
453.414	10.43
453.769	10.42
454.123	10.37
454.478	10.33
454.832	10.29
455.187	10.24
455.541	10.2
455.896	10.13
456.25	10.06
456.604	10.01
456.958	9.98
457.313	9.95
457.667	9.92
458.021	9.92
458.375	9.9
458.729	9.91
459.083	9.91
459.437	9.9
459.791	9.88
460.145	9.89
460.499	9.88
460.852	9.86
461.206	9.86
461.56	9.86
461.914	9.87
462.267	9.87
462.621	9.88
462.974	9.89
463.328	9.93
463.681	9.95
464.035	9.97
464.388	10
464.742	10.02
465.095	10.04
465.448	10.05
465.801	10.06
466.155	10.04
466.508	10.03
466.861	10.01
467.214	10.02
467.567	10.01
467.92	10
468.273	9.98
468.626	9.96
468.979	9.95
469.332	9.93
469.684	9.91
470.037	9.92
470.39	9.92
470.743	9.91
471.095	9.92
471.448	9.94
471.8	9.93
472.153	9.94
472.505	9.95
472.858	9.94
473.21	9.94
473.562	9.92
473.915	9.9
474.267	9.91
474.619	9.88
474.971	9.87
475.324	9.85
475.676	9.84
476.028	9.84
476.38	9.84
476.732	9.83
477.084	9.83
477.436	9.8
477.787	9.79
478.139	9.78
478.491	9.74
478.843	9.7
479.195	9.66
479.546	9.57
479.898	9.46
480.249	9.38
480.601	9.31
480.952	9.26
481.304	9.22
481.655	9.19
482.007	9.17
482.358	9.17
482.709	9.16
483.061	9.15
483.412	9.13
483.763	9.11
484.114	9.09
484.465	9.07
484.816	9.07
485.167	9.05
485.518	9.04
485.869	9.04
486.22	9.03
486.571	9.04
486.922	9.05
487.272	9.08
487.623	9.09
487.974	9.1
488.324	9.12
488.675	9.13
489.025	9.13
489.376	9.14
489.726	9.15
490.077	9.15
490.427	9.17
490.778	9.19
491.128	9.22
491.478	9.26
491.828	9.29
492.179	9.32
492.529	9.35
492.879	9.37
493.229	9.38
493.579	9.39
493.929	9.39
494.279	9.4
494.629	9.41
494.979	9.45
495.328	9.47
495.678	9.53
496.028	9.57
496.378	9.62
496.727	9.64
497.077	9.64
497.426	9.66
497.776	9.65
498.125	9.66
498.475	9.68
498.824	9.69
499.174	9.69
499.523	9.68
499.872	9.67
500.221	9.68
500.571	9.71
500.92	9.72
501.269	9.72
501.618	9.72
501.967	9.72
502.316	9.72
502.665	9.74
503.014	9.72
503.363	9.74
503.711	9.74
504.06	9.72
504.409	9.73
504.758	9.74
505.106	9.75
505.455	9.76
505.803	9.75
506.152	9.75
506.5	9.75
506.849	9.76
507.197	9.77
507.546	9.77
507.894	9.77
508.242	9.8
508.59	9.8
508.939	9.81
509.287	9.84
509.635	9.84
509.983	9.86
510.331	9.89
510.679	9.9
511.027	9.91
511.375	9.95
511.723	9.96
512.07	9.97
512.418	10.01
512.766	10.04
513.114	10.06
513.461	10.08
513.809	10.1
514.156	10.13
514.504	10.16
514.851	10.17
515.199	10.19
515.546	10.2
515.893	10.19
516.241	10.21
516.588	10.22
516.935	10.23
517.282	10.23
517.63	10.23
517.977	10.24
518.324	10.24
518.671	10.25
519.018	10.27
519.365	10.29
519.711	10.28
520.058	10.28
520.405	10.27
520.752	10.27
521.099	10.29
521.445	10.3
521.792	10.31
522.138	10.32
522.485	10.3
522.832	10.32
523.178	10.34
523.524	10.35
523.871	10.34
524.217	10.35
524.563	10.33
524.91	10.3
525.256	10.27
525.602	10.27
525.948	10.26
526.294	10.24
526.64	10.24
526.986	10.24
527.332	10.23
527.678	10.24
528.024	10.24
528.37	10.26
528.716	10.25
529.061	10.26
529.407	10.27
529.753	10.28
530.098	10.28
530.444	10.29
530.789	10.3
531.135	10.32
531.48	10.34
531.826	10.38
532.171	10.42
532.516	10.47
532.862	10.5
533.207	10.54
533.552	10.58
533.897	10.6
534.242	10.63
534.587	10.66
534.932	10.68
535.277	10.71
535.622	10.72
535.967	10.75
536.312	10.77
536.657	10.81
537.001	10.86
537.346	10.92
537.691	10.95
538.035	10.98
538.38	10.99
538.724	11
539.069	11
539.413	11.02
539.758	11.04
540.102	11.06
540.446	11.08
540.791	11.11
541.135	11.16
541.479	11.17
541.823	11.19
542.167	11.2
542.512	11.23
542.856	11.25
543.2	11.25
543.543	11.27
543.887	11.29
544.231	11.32
544.575	11.34
544.919	11.38
545.262	11.44
545.606	11.49
545.95	11.53
546.293	11.59
546.637	11.63
546.98	11.69
547.324	11.74
547.667	11.81
548.011	11.84
548.354	11.86
548.697	11.9
549.04	11.95
549.384	12.01
549.727	12.05
550.07	12.11
550.413	12.19
550.756	12.25
551.099	12.31
551.442	12.37
551.785	12.44
552.128	12.49
552.47	12.55
552.813	12.61
553.156	12.69
553.499	12.75
553.841	12.79
554.184	12.83
554.526	12.87
554.869	12.91
555.211	12.97
555.554	13.06
555.896	13.14
556.238	13.24
556.581	13.31
556.923	13.4
557.265	13.48
557.607	13.55
557.949	13.66
558.291	13.73
558.633	13.82
558.975	13.89
559.317	13.99
559.659	14.05
560.001	14.14
560.343	14.22
560.685	14.3
561.026	14.4
561.368	14.48
561.71	14.57
562.051	14.66
562.393	14.82
562.734	14.91
563.076	15.03
563.417	15.13
563.759	15.23
564.1	15.34
564.441	15.44
564.782	15.55
565.124	15.6
565.465	15.73
565.806	15.87
566.147	16
566.488	16.12
566.829	16.23
567.17	16.36
567.511	16.48
567.851	16.61
568.192	16.75
568.533	16.92
568.874	17.1
569.214	17.3
569.555	17.44
569.895	17.59
570.236	17.77
570.576	17.94
570.917	18.12
571.257	18.29
571.598	18.47
571.938	18.64
572.278	18.85
572.618	19.02
572.959	19.16
573.299	19.29
573.639	19.45
573.979	19.64
574.319	19.78
574.659	19.96
574.999	20.15
575.339	20.35
575.678	20.54
576.018	20.7
576.358	20.88
576.698	21.05
577.037	21.23
577.377	21.42
577.716	21.58
578.056	21.8
578.395	22
578.735	22.2
579.074	22.42
579.413	22.6
579.753	22.84
580.092	23.06
580.431	23.3
580.77	23.54
581.109	23.77
581.448	23.98
581.787	24.16
582.126	24.36
582.465	24.57
582.804	24.79
583.143	25.03
583.482	25.24
583.82	25.43
584.159	25.66
584.498	25.84
584.836	26.06
585.175	26.24
585.514	26.48
585.852	26.76
586.19	26.98
586.529	27.23
586.867	27.46
587.205	27.66
587.544	27.9
587.882	28.09
588.22	28.28
588.558	28.49
588.896	28.72
589.234	28.9
589.572	29.05
589.91	29.17
590.248	29.33
590.586	29.5
590.924	29.71
591.262	29.9
591.599	30.1
591.937	30.27
592.275	30.4
592.612	30.56
592.95	30.72
593.287	30.93
593.625	31.12
593.962	31.3
594.299	31.49
594.637	31.61
594.974	31.76
595.311	31.9
595.648	32.02
595.985	32.11
596.322	32.21
596.659	32.34
596.996	32.49
597.333	32.58
597.67	32.7
598.007	32.79
598.344	32.89
598.681	33.01
599.017	33.12
599.354	33.27
599.691	33.37
600.027	33.49
600.364	33.58
600.7	33.67
601.037	33.83
601.373	34
601.71	34.15
602.046	34.25
602.382	34.38
602.718	34.52
603.054	34.61
603.391	34.69
603.727	34.78
604.063	34.85
604.399	34.95
604.735	34.99
605.071	35.08
605.406	35.15
605.742	35.23
606.078	35.34
606.414	35.44
606.749	35.53
607.085	35.57
607.421	35.63
607.756	35.7
608.092	35.74
608.427	35.74
608.762	35.76
609.098	35.78
609.433	35.8
609.768	35.79
610.104	35.85
610.439	35.93
610.774	35.98
611.109	36.01
611.444	36.08
611.779	36.11
612.114	36.16
612.449	36.2
612.784	36.23
613.118	36.22
613.453	36.23
613.788	36.22
614.123	36.22
614.457	36.29
614.792	36.34
615.126	36.34
615.461	36.42
615.795	36.49
616.13	36.54
616.464	36.63
616.798	36.7
617.132	36.74
617.467	36.75
617.801	36.75
618.135	36.78
618.469	36.74
618.803	36.77
619.137	36.8
619.471	36.85
619.805	36.81
620.139	36.84
620.472	36.9
620.806	36.98
621.14	37.07
621.473	37.12
621.807	37.15
622.141	37.16
622.474	37.17
622.808	37.17
623.141	37.24
623.474	37.25
623.808	37.33
624.141	37.35
624.474	37.41
624.807	37.51
625.141	37.59
625.474	37.66
625.807	37.67
626.14	37.7
626.473	37.68
626.806	37.77
627.138	37.8
627.471	37.79
627.804	37.79
628.137	37.8
628.469	37.76
628.802	37.75
629.135	37.79
629.467	37.81
629.8	37.85
630.132	37.83
630.465	37.86
630.797	37.81
631.129	37.85
631.461	37.88
631.794	37.84
632.126	37.82
632.458	37.85
632.79	37.89
633.122	37.92
633.454	37.95
633.786	37.92
634.118	37.87
634.45	37.93
634.781	37.88
635.113	37.87
635.445	37.87
635.777	37.9
636.108	37.87
636.44	37.9
636.771	37.89
637.103	37.89
637.434	37.84
637.765	37.89
638.097	37.89
638.428	37.83
638.759	37.89
639.09	37.81
639.422	37.84
639.753	37.85
640.084	37.8
640.415	37.8
640.746	37.84
641.077	37.84
641.407	37.78
641.738	37.87
642.069	37.88
642.4	37.89
642.73	37.9
643.061	37.94
643.392	37.97
643.722	38.03
644.053	38.06
644.383	38.1
644.713	38.09
645.044	38.07
645.374	38.06
645.704	38.01
646.034	38.08
646.365	38.03
646.695	38
647.025	37.99
647.355	37.99
647.685	37.98
648.015	38
648.344	38.08
648.674	38.07
649.004	38.15
649.334	38.2
649.663	38.16
649.993	38.19
650.323	38.2
650.652	38.17
650.982	38.16
651.311	38.08
651.64	38.07
651.97	38.08
652.299	38.11
652.628	38.11
652.958	38.09
653.287	38.17
653.616	38.16
653.945	38.2
654.274	38.19
654.603	38.19
654.932	38.21
655.261	38.2
655.589	38.27
655.918	38.26
656.247	38.3
656.576	38.38
656.904	38.42
657.233	38.41
657.561	38.39
657.89	38.42
658.218	38.45
658.547	38.44
658.875	38.42
659.203	38.41
659.532	38.45
659.86	38.45
660.188	38.37
660.516	38.41
660.844	38.41
661.172	38.48
661.5	38.52
661.828	38.54
662.156	38.49
662.484	38.41
662.811	38.39
663.139	38.37
663.467	38.32
663.794	38.31
664.122	38.25
664.45	38.28
664.777	38.29
665.104	38.31
665.432	38.29
665.759	38.25
666.086	38.3
666.414	38.31
666.741	38.32
667.068	38.35
667.395	38.34
667.722	38.42
668.049	38.36
668.376	38.3
668.703	38.32
669.03	38.31
669.357	38.36
669.683	38.37
670.01	38.39
670.337	38.42
670.663	38.41
670.99	38.48
671.317	38.5
671.643	38.47
671.969	38.43
672.296	38.5
672.622	38.55
672.948	38.54
673.275	38.45
673.601	38.47
673.927	38.44
674.253	38.47
674.579	38.36
674.905	38.42
675.231	38.46
675.557	38.42
675.883	38.45
676.209	38.44
676.534	38.39
676.86	38.37
677.186	38.39
677.511	38.34
677.837	38.33
678.162	38.33
678.488	38.34
678.813	38.41
679.139	38.48
679.464	38.56
679.789	38.5
680.114	38.55
680.44	38.57
680.765	38.63
681.09	38.56
681.415	38.62
681.74	38.66
682.065	38.67
682.39	38.68
682.714	38.68
683.039	38.69
683.364	38.71
683.689	38.73
684.013	38.73
684.338	38.71
684.662	38.73
684.987	38.74
685.311	38.7
685.636	38.69
685.96	38.65
686.284	38.52
686.608	38.57
686.933	38.62
687.257	38.57
687.581	38.53
687.905	38.66
688.229	38.68
688.553	38.67
688.877	38.65
689.201	38.64
689.524	38.67
689.848	38.61
690.172	38.64
690.496	38.58
690.819	38.55
691.143	38.52
691.466	38.51
691.79	38.53
692.113	38.58
692.436	38.63
692.76	38.58
693.083	38.6
693.406	38.6
693.729	38.54
694.053	38.61
694.376	38.67
694.699	38.66
695.022	38.75
695.344	38.86
695.667	39.08
695.99	39.18
696.313	39.23
696.636	39.32
696.958	39.4
697.281	39.44
697.604	39.39
697.926	39.41
698.249	39.49
698.571	39.45
698.893	39.48
699.216	39.44
699.538	39.43
699.86	39.49
700.182	39.47
700.504	39.55
700.827	39.54
701.149	39.53
701.471	39.46
701.793	39.37
702.114	39.17
702.436	38.88
702.758	38.72
703.08	38.62
703.401	38.49
703.723	38.29
704.045	38.26
704.366	38.27
704.688	38.3
705.009	38.13
705.331	38.15
705.652	38.02
705.973	38.06
706.294	37.96
706.616	37.9
706.937	37.98
707.258	37.88
707.579	37.88
707.9	37.89
708.221	37.97
708.542	38
708.863	38.13
709.183	38.21
709.504	38.37
709.825	38.4
710.145	38.47
710.466	38.51
710.787	38.48
711.107	38.62
711.427	38.61
711.748	38.71
712.068	38.7
712.388	38.8
712.709	38.86
713.029	39.02
713.349	39.11
713.669	39.08
713.989	39.06
714.309	39.09
714.629	39.05
714.949	39.01
715.269	38.96
715.589	38.83
715.908	38.81
716.228	38.72
716.548	38.75
716.867	38.79
717.187	38.88
717.506	38.94
717.826	38.8
718.145	38.76
718.465	38.72
718.784	38.78
719.103	38.8
719.422	38.75
719.741	38.69
720.061	38.71
720.38	38.67
720.699	38.78
721.018	38.79
721.336	38.84
721.655	38.86
721.974	38.95
722.293	39.1
722.612	39.22
722.93	39.2
723.249	39.25
723.567	39.24
723.886	39.25
724.204	39.28
724.523	39.47
724.841	39.6
725.159	39.66
725.477	39.81
725.796	39.89
726.114	40.01
726.432	40.08
726.75	40.2
727.068	40.36
727.386	40.5
727.704	40.54
728.022	40.63
728.339	40.77
728.657	40.9
728.975	40.99
729.292	41.13
729.61	41.37
729.928	41.42
730.245	41.49
730.562	41.52
730.88	41.67
731.197	41.74
731.514	41.88
731.832	42.03
732.149	42.03
732.466	42.05
732.783	42.14
733.1	42.31
733.417	42.39
733.734	42.49
734.051	42.42
734.368	42.52
734.684	42.69
735.001	42.71
735.318	42.75
735.634	42.71
735.951	42.75
736.268	42.78
736.584	42.86
736.9	43.03
737.217	43.15
737.533	43.22
737.849	43.32
738.166	43.39
738.482	43.5
738.798	43.62
739.114	43.76
739.43	43.68
739.746	43.66
740.062	43.71
740.378	43.69
740.693	43.85
741.009	43.91
741.325	44.13
741.641	44
741.956	44.06
742.272	44.29
742.587	44.41
742.903	44.54
743.218	44.72
743.533	44.53
743.849	44.67
744.164	44.72
744.479	44.78
744.794	44.83
745.109	44.84
745.424	44.72
745.739	44.7
746.054	44.95
746.369	45.05
746.684	45.14
746.999	45.22
747.313	45.3
747.628	45.38
747.943	45.35
748.257	45.65
748.572	45.89
748.886	45.84
749.201	45.91
749.515	45.89
749.829	45.97
750.144	46.24
750.458	46.36
750.772	46.27
751.086	46.29
751.4	46.35
751.714	46.33
752.028	46.59
752.342	46.73
752.656	46.67
752.97	46.72
753.284	46.76
753.597	46.94
753.911	47.04
754.225	47.15
754.538	47.25
754.852	47.38
755.165	47.29
755.478	47.39
755.792	47.33
756.105	47.34
756.418	47.24
756.731	47.34
757.045	47.39
757.358	47.69
757.671	47.88
757.984	47.81
758.297	47.89
758.609	48.04
758.922	48.14
759.235	48.3
759.548	48.34
759.86	48.18
760.173	48.16
760.486	48.16
760.798	47.97
761.111	47.79
761.423	47.77
761.735	47.67
762.048	47.73
762.36	47.81
762.672	47.89
762.984	47.99
763.296	47.94
763.608	47.8
763.92	47.69
764.232	47.6
764.544	47.66
764.856	47.72
765.168	47.56
765.48	47.61
765.791	47.61
766.103	47.6
766.414	47.79
766.726	47.88
767.037	47.89
767.349	48.19
767.66	48.46
767.972	48.52
768.283	48.93
768.594	49.1
768.905	49.31
769.216	49.28
769.527	49.43
769.838	49.67
770.149	49.91
770.46	50.22
770.771	50.54
771.082	50.79
771.393	51.08
771.703	51.37
772.014	51.31
772.324	51.53
772.635	51.69
772.945	51.72
773.256	51.97
773.566	52.24
773.877	52.37
774.187	52.54
774.497	52.5
774.807	52.62
775.117	52.56
775.427	52.64
775.737	53.02
776.047	52.97
776.357	53.17
776.667	53.44
776.977	53.6
777.287	53.28
777.596	53.27
777.906	53.31
778.216	53.39
778.525	53.4
778.835	53.41
779.144	53.65
779.453	53.82
779.763	53.93
780.072	53.86
780.381	53.81
780.69	53.79
781	54.11
781.309	53.8
781.618	53.98
781.927	54.08
782.235	53.96
782.544	54.3
782.853	54.23
783.162	53.99
783.471	53.78
783.779	53.93
784.088	54.17
784.396	54.19
784.705	54.15
785.013	54.12
785.322	54.17
785.63	54.16
785.938	54.07
786.246	54.05
786.554	54.14
786.863	54.21
787.171	54.23
787.479	54.24
787.787	54.36
788.094	54.27
788.402	53.81
788.71	53.87
789.018	53.65
789.326	53.66
789.633	53.94
789.941	54.08
790.248	54.32
790.556	54.27
790.863	54.22
791.171	54.43
791.478	54.69
791.785	54.56
792.092	54.54
792.399	54.97
792.707	54.79
793.014	54.74
793.321	54.48
793.628	54.28
793.934	53.99
794.241	53.72
794.548	53.76
794.855	54.17
795.161	53.98
795.468	53.88
795.775	53.87
796.081	53.9
796.388	53.82
796.694	53.72
797	53.73
797.307	53.56
797.613	53.4
797.919	53.12
798.225	53.29
798.531	53.34
798.837	53.07
799.143	53.17
799.449	53.15
799.755	53.31
800.061	53.43
800.367	53.93
800.672	54.5
800.978	54.68
801.284	54.61
801.589	55.1
801.895	55.33
802.2	55.4
802.506	55.31
802.811	55.3
803.116	55.33
803.421	55.19
803.727	55.69
804.032	55.64
804.337	56.08
804.642	56.06
804.947	56.03
805.252	56.16
805.556	56.11
805.861	56.18
806.166	56.36
806.471	56.44
806.775	56.56
807.08	56.36
807.384	56.41
807.689	56.62
807.993	56.49
808.298	56.58
808.602	56.5
808.906	56.56
809.211	56.59
809.515	56.72
809.819	56.9
810.123	56.82
810.427	57.24
810.731	57.36
811.035	57.37
811.338	57.4
811.642	57.24
811.946	57.49
812.25	57.54
812.553	57.57
812.857	57.48
813.16	57.55
813.464	57.8
813.767	57.59
814.07	57.93
814.374	57.83
814.677	57.88
814.98	57.88
815.283	57.97
815.586	58.01
815.889	57.76
816.192	57.78
816.495	57.61
816.798	57.53
817.101	57.3
817.404	56.75
817.706	56.49
818.009	56.2
818.312	55.67
818.614	55.02
818.917	53.91
819.219	53.14
819.521	51.87
819.824	50.84
820.126	50.05
820.428	49.2
820.73	48.75
821.032	48.4
821.334	48.03
821.636	47.76
821.938	47.52
822.24	47.48
822.542	47.41
822.844	47.3
823.145	47.27
823.447	47.2
823.749	47.18
824.05	47.22
824.352	47.15
824.653	47.16
824.955	47.09
825.256	47.16
825.557	47.03
825.858	47.11
826.16	47.18
826.461	47.34
826.762	47.66
827.063	47.91
827.364	48.14
827.665	48.54
827.965	48.87
828.266	49.44
828.567	49.69
828.868	49.9
829.168	50.26
829.469	50.33
829.769	50.47
830.07	50.74
830.37	50.95
830.67	51.32
830.971	51.71
831.271	52.36
831.571	52.44
831.871	52.96
832.171	53.14
832.471	53.56
832.771	53.72
833.071	53.54
833.371	53.52
833.671	53.7
833.971	53.92
834.27	53.97
834.57	53.95
834.869	53.94
835.169	54.06
835.468	53.99
835.768	54.06
836.067	54.31
836.367	54.52
836.666	54.54
836.965	54.61
837.264	54.48
837.563	54.59
837.862	55.18
838.161	55.74
838.46	56.02
838.759	56.12
839.058	56.73
839.356	57.45
839.655	58.21
839.954	58.48
840.252	58.64
840.551	59.07
840.849	58.97
841.148	59.35
841.446	59.37
841.744	59.76
842.043	60.35
842.341	60.34
842.639	60.74
842.937	61.26
843.235	62.04
843.533	63.02
843.831	63.62
844.129	64.31
844.427	64.67
844.724	65.72
845.022	66.36
845.32	66.83
845.617	67.9
845.915	68.38
846.212	69.68
846.51	70.74
846.807	71.43
847.104	72.45
847.402	73.32
847.699	73.86
847.996	73.61
848.293	72.4
848.59	72.81
848.887	72.7
849.184	72.18
849.481	72.34
849.778	72.16
850.074	72.38
850.371	73.12
850.668	74.11
850.964	74.13
851.261	74.08
851.557	74.19
851.854	73.95
852.15	73.75
852.446	73.11
852.743	72.75
853.039	72.89
853.335	73.56
853.631	73.22
853.927	73.51
854.223	73.51
854.519	74.16
854.815	73.81
855.111	73.92
855.406	74.54
855.702	74.44
855.998	75.02
856.293	75.03
856.589	75
856.884	74.71
857.18	75.09
857.475	76.1
857.77	76.37
858.066	76.67
858.361	77.55
858.656	77.98
858.951	78.5
859.246	78.61
859.541	78.2
859.836	78.47
860.131	78.78
860.426	79.38
860.72	79.39
861.015	79.83
861.31	79.98
861.604	79.88
861.899	79.99
862.193	80.24
862.487	80.71
862.782	80.55
863.076	80.18
863.37	80.06
863.664	80.03
863.959	79.76
864.253	79.3
864.547	79.91
864.841	79.53
865.135	79.1
865.428	78.55
865.722	77.49
866.016	76.94
866.31	76.46
866.603	75.52
866.897	75.4
867.19	75.38
867.484	74.9
867.777	74.4
868.07	74.31
868.364	73.03
868.657	73.15
868.95	73.11
869.243	72.78
869.536	72.5
869.829	71.74
870.122	71.83
870.415	72.48
870.708	71.24
871	71.37
871.293	71.08
871.586	70.47
871.878	70.66
872.171	69.42
872.463	68.8
872.756	69.54
873.048	69.62
873.341	69.41
873.633	69.73
873.925	69.63
874.217	69.33
874.509	69.55
874.801	68.5
875.093	67.8
875.385	67.9
875.677	67.73
875.969	67.81
