Data from pcis_p_h3_p1_Reflection_5.txt Node
Date: Wed Jul 12 17:51:41 ART 2017
User: rodoncho
Spectrometer: USB2E3644
Trigger mode: 4
Integration Time (sec): 6.000000E-2
Scans to average: 10
Electric dark correction enabled: true
Nonlinearity correction enabled: false
Boxcar width: 10
XAxis mode: Wavelengths
Number of Pixels in Spectrum: 2048
>>>>>Begin Spectral Data<<<<<
178.315	-294.67
178.696	366.67
179.076	428.07
179.457	402.9
179.838	278.79
180.218	783.33
180.599	-16.67
180.979	100
181.36	14.37
181.74	5.83
182.121	-54.17
182.501	83.33
182.881	72.01
183.262	75.4
183.642	108.13
184.022	111.11
184.402	13.33
184.783	204.44
185.163	202.47
185.543	155.04
185.923	145.5
186.303	134.63
186.683	121.38
187.063	132.28
187.443	127.29
187.823	119.22
188.203	112.59
188.583	105.45
188.963	104.84
189.343	100.23
189.723	96.02
190.102	96.84
190.482	100.44
190.862	99.92
191.242	108.52
191.621	116.32
192.001	119.97
192.38	117.26
192.76	119.29
193.14	118.34
193.519	120.59
193.898	120.68
194.278	121.41
194.657	121.79
195.037	118.25
195.416	120.78
195.795	121.75
196.175	122.47
196.554	121.91
196.933	122.17
197.312	121.39
197.692	123.94
198.071	124
198.45	120.75
198.829	121.83
199.208	118.91
199.587	117.38
199.966	116.67
200.345	117.19
200.724	114.95
201.103	113.25
201.482	111.72
201.86	110.52
202.239	109.66
202.618	108.17
202.997	109.22
203.375	108.26
203.754	107.82
204.133	108.79
204.511	111.42
204.89	112.35
205.269	112.28
205.647	111.79
206.026	110.97
206.404	112.15
206.782	110.56
207.161	109.77
207.539	109.27
207.918	108.6
208.296	109.13
208.674	110.06
209.052	111.84
209.431	113.27
209.809	113.68
210.187	114.37
210.565	115.31
210.943	115.55
211.321	115.42
211.699	117.36
212.077	116.87
212.455	114.67
212.833	112.73
213.211	112.87
213.589	113.75
213.967	114.74
214.345	114.44
214.722	115.75
215.1	116.8
215.478	119.31
215.855	121.9
216.233	122.07
216.611	121.14
216.988	118.79
217.366	117.29
217.743	118.15
218.121	119.45
218.498	119.27
218.876	117.42
219.253	118.74
219.631	117.93
220.008	119.12
220.385	120.45
220.762	122.95
221.14	124.32
221.517	123.42
221.894	124.76
222.271	125.89
222.648	125.16
223.025	124.5
223.402	123.16
223.78	121.66
224.157	123.03
224.533	124.51
224.91	127.28
225.287	128.39
225.664	127.56
226.041	125.1
226.418	124.49
226.795	125.2
227.171	123.36
227.548	123.68
227.925	123
228.301	122.4
228.678	121.5
229.055	120.78
229.431	120.91
229.808	119.13
230.184	119.82
230.561	120.48
230.937	120.97
231.313	121.46
231.69	122.14
232.066	119.82
232.442	119.25
232.819	118.56
233.195	118.39
233.571	118.47
233.947	120.15
234.323	121.46
234.699	123.9
235.075	125.64
235.451	125.23
235.827	126.38
236.203	126.95
236.579	127.34
236.955	127.74
237.331	128.04
237.707	131.78
238.083	133.36
238.459	137.52
238.834	143.36
239.21	148.44
239.586	153.57
239.961	159.54
240.337	163.37
240.713	167.78
241.088	171.55
241.464	175.89
241.839	181.26
242.215	187.55
242.59	198.9
242.965	223.62
243.341	274.08
243.716	339.31
244.091	453.54
244.467	594.75
244.842	821.04
245.217	1365.56
245.592	1654.67
245.967	2185.09
246.343	2121.1
246.718	2010.44
247.093	2244.75
247.468	2354.59
247.843	3555.8
248.218	-82083.33
248.593	-2790.96
248.967	-1325.54
249.342	-1011.52
249.717	-917.23
250.092	-904.81
250.467	-1123.22
250.841	-2034.58
251.216	5647.13
251.591	1321.33
251.965	777.41
252.34	607.57
252.714	539.18
253.089	465.73
253.463	464.15
253.838	469.48
254.212	481.75
254.587	536.08
254.961	653.15
255.335	1163.22
255.71	-9264.81
256.084	-806.21
256.458	-401.64
256.832	-278.97
257.206	-231.18
257.581	-207.23
257.955	-195.43
258.329	-181.46
258.703	-170.11
259.077	-160.39
259.451	-152.32
259.825	-141.41
260.199	-135.2
260.572	-130.91
260.946	-125.36
261.32	-124.73
261.694	-119.28
262.068	-114.93
262.441	-112.99
262.815	-112.23
263.189	-114.81
263.562	-121.87
263.936	-138.71
264.309	-165.95
264.683	-197.44
265.056	-222.44
265.43	-234.77
265.803	-232.7
266.176	-224.7
266.55	-217.74
266.923	-210.25
267.296	-204.95
267.67	-195.22
268.043	-181.37
268.416	-166.29
268.789	-150.53
269.162	-130.74
269.535	-120.9
269.908	-115.07
270.281	-111.02
270.654	-111.42
271.027	-112.99
271.4	-115.05
271.773	-114.06
272.146	-110.8
272.519	-104.64
272.891	-100.39
273.264	-100.31
273.637	-99.51
274.01	-100.38
274.382	-100.59
274.755	-100.25
275.127	-97.98
275.5	-100.72
275.872	-101.4
276.245	-102.1
276.617	-104.67
276.99	-110.26
277.362	-115.2
277.734	-117.79
278.107	-116.18
278.479	-110.11
278.851	-106.45
279.223	-102.7
279.596	-100.24
279.968	-98.83
280.34	-100.49
280.712	-98.87
281.084	-92.19
281.456	-83.92
281.828	-76.55
282.2	-70.53
282.572	-65.42
282.944	-62.52
283.315	-60.33
283.687	-58.98
284.059	-58.53
284.431	-57.59
284.802	-56.38
285.174	-54.2
285.546	-52.38
285.917	-52.23
286.289	-51.03
286.66	-49.42
287.032	-48.57
287.403	-47.9
287.775	-47.75
288.146	-46.34
288.518	-45.47
288.889	-45.56
289.26	-47.21
289.632	-48.83
290.003	-50.14
290.374	-51.34
290.745	-51.87
291.116	-51.63
291.487	-50.43
291.858	-48.96
292.229	-48.26
292.6	-47.12
292.971	-46.49
293.342	-44.77
293.713	-42.23
294.084	-40.73
294.455	-40.1
294.826	-38.74
295.196	-38.45
295.567	-37.93
295.938	-38.13
296.308	-38.68
296.679	-37.97
297.05	-37.01
297.42	-36.31
297.791	-35.54
298.161	-34.53
298.532	-34.04
298.902	-33.56
299.272	-33.08
299.643	-32.32
300.013	-32.09
300.383	-31.81
300.754	-31.5
301.124	-31.71
301.494	-32.03
301.864	-32.11
302.234	-31.98
302.604	-32.28
302.974	-31.88
303.344	-31.69
303.714	-31.56
304.084	-30.58
304.454	-30.3
304.824	-29.63
305.194	-28.72
305.563	-27.76
305.933	-26.58
306.303	-24.9
306.673	-23.69
307.042	-22.82
307.412	-21.82
307.781	-20.25
308.151	-18.97
308.521	-18.36
308.89	-17.74
309.259	-17.15
309.629	-17.01
309.998	-17.12
310.368	-16.97
310.737	-16.68
311.106	-16.05
311.475	-15.3
311.845	-14.91
312.214	-14.55
312.583	-14.26
312.952	-14.11
313.321	-14.01
313.69	-14.18
314.059	-14.86
314.428	-15.13
314.797	-15.64
315.166	-16.61
315.535	-17.32
315.904	-17.84
316.272	-17.62
316.641	-17.79
317.01	-17.45
317.379	-17.46
317.747	-17.1
318.116	-16.75
318.484	-16.44
318.853	-16.41
319.221	-16.27
319.59	-15.95
319.958	-15.3
320.327	-15.19
320.695	-14.92
321.063	-14.67
321.432	-14.14
321.8	-13.74
322.168	-12.73
322.536	-11.53
322.905	-10.25
323.273	-9.53
323.641	-9.08
324.009	-8.97
324.377	-8.41
324.745	-8.43
325.113	-8.18
325.481	-7.56
325.849	-6.95
326.216	-6.51
326.584	-5.89
326.952	-5.35
327.32	-4.92
327.687	-4.7
328.055	-4.18
328.423	-3.86
328.79	-3.58
329.158	-3.42
329.525	-2.72
329.893	-2.56
330.26	-2.55
330.628	-2.55
330.995	-2.38
331.362	-2.09
331.73	-1.55
332.097	-1.17
332.464	-0.8
332.831	-0.43
333.199	-0.14
333.566	0.1
333.933	0.38
334.3	0.47
334.667	0.56
335.034	0.65
335.401	0.67
335.768	0.76
336.135	1.01
336.502	1.16
336.868	1.46
337.235	1.49
337.602	1.76
337.969	2.03
338.335	2.41
338.702	2.79
339.069	3.02
339.435	3.09
339.802	3.15
340.168	3.31
340.535	3.52
340.901	3.51
341.267	3.63
341.634	3.9
342	4.18
342.366	4.39
342.733	4.63
343.099	4.98
343.465	5.22
343.831	5.39
344.197	5.5
344.563	5.48
344.929	5.61
345.295	5.81
345.661	5.99
346.027	6.08
346.393	6.23
346.759	6.24
347.125	6.35
347.491	6.49
347.856	6.63
348.222	6.61
348.588	6.72
348.953	6.59
349.319	6.52
349.684	6.53
350.05	6.67
350.415	6.78
350.781	6.86
351.146	7.02
351.512	7.13
351.877	7.3
352.242	7.47
352.608	7.5
352.973	7.47
353.338	7.49
353.703	7.51
354.068	7.54
354.433	7.72
354.798	7.87
355.164	7.89
355.528	7.88
355.893	7.98
356.258	8.13
356.623	8.34
356.988	8.44
357.353	8.66
357.718	8.7
358.082	8.72
358.447	8.61
358.812	8.57
359.176	8.6
359.541	8.58
359.905	8.67
360.27	8.75
360.634	8.82
360.999	8.79
361.363	8.87
361.728	8.84
362.092	8.77
362.456	8.7
362.821	8.76
363.185	8.89
363.549	9.01
363.913	9.08
364.277	9.15
364.641	9.18
365.005	9.14
365.369	9.18
365.733	9.27
366.097	9.44
366.461	9.51
366.825	9.55
367.189	9.74
367.553	9.79
367.916	9.91
368.28	9.95
368.644	10.16
369.007	10.2
369.371	10.32
369.734	10.43
370.098	10.62
370.461	10.69
370.825	10.72
371.188	10.82
371.552	10.97
371.915	11.05
372.278	11.11
372.642	11.21
373.005	11.33
373.368	11.36
373.731	11.42
374.094	11.48
374.457	11.53
374.82	11.55
375.183	11.58
375.546	11.58
375.909	11.65
376.272	11.65
376.635	11.68
376.998	11.71
377.361	11.77
377.723	11.8
378.086	11.87
378.449	11.94
378.811	12.02
379.174	11.99
379.537	12.03
379.899	12.1
380.262	12.1
380.624	12.07
380.987	12.12
381.349	12.09
381.711	12.15
382.074	12.23
382.436	12.29
382.798	12.3
383.16	12.3
383.522	12.35
383.884	12.35
384.247	12.45
384.609	12.51
384.971	12.5
385.333	12.54
385.695	12.53
386.056	12.51
386.418	12.42
386.78	12.41
387.142	12.36
387.504	12.3
387.865	12.3
388.227	12.33
388.589	12.33
388.95	12.38
389.312	12.3
389.673	12.25
390.035	12.19
390.396	12.19
390.758	12.19
391.119	12.16
391.48	12.14
391.842	12.09
392.203	12.04
392.564	12.07
392.925	12.01
393.286	12
393.648	11.96
394.009	11.98
394.37	11.95
394.731	11.92
395.092	11.91
395.452	11.89
395.813	11.83
396.174	11.82
396.535	11.77
396.896	11.79
397.257	11.77
397.617	11.77
397.978	11.78
398.338	11.78
398.699	11.78
399.06	11.75
399.42	11.67
399.781	11.65
400.141	11.55
400.501	11.53
400.862	11.55
401.222	11.57
401.582	11.49
401.943	11.45
402.303	11.47
402.663	11.46
403.023	11.46
403.383	11.48
403.743	11.48
404.103	11.5
404.463	11.5
404.823	11.52
405.183	11.51
405.543	11.51
405.903	11.5
406.262	11.46
406.622	11.47
406.982	11.47
407.342	11.48
407.701	11.53
408.061	11.54
408.42	11.51
408.78	11.52
409.139	11.55
409.499	11.55
409.858	11.56
410.217	11.58
410.577	11.59
410.936	11.59
411.295	11.55
411.655	11.49
412.014	11.45
412.373	11.38
412.732	11.35
413.091	11.32
413.45	11.24
413.809	11.2
414.168	11.12
414.527	11.03
414.886	10.92
415.245	10.8
415.603	10.68
415.962	10.56
416.321	10.44
416.679	10.35
417.038	10.24
417.397	10.1
417.755	9.98
418.114	9.86
418.472	9.73
418.831	9.66
419.189	9.6
419.547	9.53
419.906	9.46
420.264	9.36
420.622	9.26
420.981	9.2
421.339	9.13
421.697	9.07
422.055	9.03
422.413	8.98
422.771	8.95
423.129	8.93
423.487	8.92
423.845	8.9
424.203	8.88
424.56	8.88
424.918	8.89
425.276	8.9
425.634	8.94
425.991	8.97
426.349	8.98
426.707	9
427.064	9.03
427.422	9.05
427.779	9.12
428.137	9.15
428.494	9.2
428.851	9.24
429.209	9.28
429.566	9.33
429.923	9.36
430.28	9.4
430.637	9.44
430.995	9.46
431.352	9.48
431.709	9.53
432.066	9.57
432.423	9.6
432.78	9.63
433.137	9.65
433.493	9.68
433.85	9.72
434.207	9.73
434.564	9.74
434.92	9.74
435.277	9.75
435.634	9.77
435.99	9.78
436.347	9.79
436.703	9.82
437.06	9.84
437.416	9.86
437.773	9.86
438.129	9.85
438.485	9.85
438.841	9.86
439.198	9.85
439.554	9.83
439.91	9.84
440.266	9.81
440.622	9.77
440.978	9.73
441.334	9.66
441.69	9.61
442.046	9.54
442.402	9.48
442.758	9.38
443.113	9.32
443.469	9.25
443.825	9.18
444.181	9.13
444.536	9.06
444.892	9.02
445.247	8.96
445.603	8.91
445.958	8.87
446.314	8.81
446.669	8.76
447.025	8.72
447.38	8.65
447.735	8.61
448.09	8.56
448.446	8.52
448.801	8.48
449.156	8.45
449.511	8.42
449.866	8.4
450.221	8.42
450.576	8.42
450.931	8.41
451.286	8.39
451.641	8.38
451.995	8.36
452.35	8.37
452.705	8.35
453.06	8.36
453.414	8.36
453.769	8.37
454.123	8.38
454.478	8.39
454.832	8.4
455.187	8.41
455.541	8.42
455.896	8.42
456.25	8.46
456.604	8.49
456.958	8.53
457.313	8.57
457.667	8.6
458.021	8.63
458.375	8.7
458.729	8.79
459.083	8.86
459.437	8.93
459.791	8.99
460.145	9.07
460.499	9.15
460.852	9.22
461.206	9.31
461.56	9.39
461.914	9.48
462.267	9.59
462.621	9.72
462.974	9.87
463.328	10.06
463.681	10.23
464.035	10.4
464.388	10.61
464.742	10.76
465.095	10.92
465.448	11.1
465.801	11.23
466.155	11.34
466.508	11.46
466.861	11.57
467.214	11.69
467.567	11.8
467.92	11.9
468.273	12
468.626	12.08
468.979	12.17
469.332	12.23
469.684	12.3
470.037	12.35
470.39	12.42
470.743	12.47
471.095	12.53
471.448	12.58
471.8	12.59
472.153	12.62
472.505	12.61
472.858	12.58
473.21	12.56
473.562	12.5
473.915	12.43
474.267	12.34
474.619	12.25
474.971	12.14
475.324	12.04
475.676	11.93
476.028	11.8
476.38	11.68
476.732	11.57
477.084	11.43
477.436	11.28
477.787	11.11
478.139	10.95
478.491	10.78
478.843	10.61
479.195	10.41
479.546	10.17
479.898	9.86
480.249	9.57
480.601	9.34
480.952	9.16
481.304	9.05
481.655	8.97
482.007	8.9
482.358	8.85
482.709	8.79
483.061	8.75
483.412	8.72
483.763	8.67
484.114	8.63
484.465	8.61
484.816	8.59
485.167	8.59
485.518	8.59
485.869	8.6
486.22	8.62
486.571	8.65
486.922	8.69
487.272	8.77
487.623	8.87
487.974	9
488.324	9.13
488.675	9.25
489.025	9.36
489.376	9.45
489.726	9.56
490.077	9.68
490.427	9.79
490.778	9.93
491.128	10.11
491.478	10.3
491.828	10.52
492.179	10.76
492.529	10.98
492.879	11.21
493.229	11.44
493.579	11.65
493.929	11.87
494.279	12.09
494.629	12.32
494.979	12.63
495.328	12.96
495.678	13.36
496.028	13.75
496.378	14.12
496.727	14.46
497.077	14.77
497.426	15.08
497.776	15.36
498.125	15.64
498.475	15.92
498.824	16.16
499.174	16.42
499.523	16.65
499.872	16.93
500.221	17.21
500.571	17.47
500.92	17.74
501.269	18
501.618	18.26
501.967	18.52
502.316	18.76
502.665	19.02
503.014	19.24
503.363	19.46
503.711	19.67
504.06	19.85
504.409	20
504.758	20.14
505.106	20.31
505.455	20.43
505.803	20.54
506.152	20.67
506.5	20.79
506.849	20.89
507.197	20.98
507.546	21.08
507.894	21.18
508.242	21.27
508.59	21.33
508.939	21.37
509.287	21.42
509.635	21.47
509.983	21.5
510.331	21.54
510.679	21.57
511.027	21.58
511.375	21.61
511.723	21.67
512.07	21.69
512.418	21.71
512.766	21.73
513.114	21.76
513.461	21.77
513.809	21.77
514.156	21.75
514.504	21.75
514.851	21.7
515.199	21.66
515.546	21.63
515.893	21.62
516.241	21.63
516.588	21.61
516.935	21.59
517.282	21.57
517.63	21.54
517.977	21.5
518.324	21.49
518.671	21.5
519.018	21.5
519.365	21.49
519.711	21.47
520.058	21.44
520.405	21.41
520.752	21.39
521.099	21.35
521.445	21.33
521.792	21.27
522.138	21.23
522.485	21.2
522.832	21.15
523.178	21.1
523.524	21.05
523.871	21.01
524.217	20.96
524.563	20.87
524.91	20.76
525.256	20.66
525.602	20.56
525.948	20.48
526.294	20.42
526.64	20.36
526.986	20.32
527.332	20.28
527.678	20.26
528.024	20.22
528.37	20.2
528.716	20.17
529.061	20.14
529.407	20.1
529.753	20.06
530.098	20
530.444	19.95
530.789	19.93
531.135	19.9
531.48	19.88
531.826	19.86
532.171	19.84
532.516	19.82
532.862	19.77
533.207	19.73
533.552	19.69
533.897	19.66
534.242	19.64
534.587	19.6
534.932	19.56
535.277	19.54
535.622	19.51
535.967	19.5
536.312	19.46
536.657	19.43
537.001	19.39
537.346	19.36
537.691	19.3
538.035	19.2
538.38	19.11
538.724	19.05
539.069	18.97
539.413	18.93
539.758	18.89
540.102	18.87
540.446	18.83
540.791	18.81
541.135	18.79
541.479	18.76
541.823	18.75
542.167	18.71
542.512	18.68
542.856	18.62
543.2	18.57
543.543	18.55
543.887	18.52
544.231	18.5
544.575	18.47
544.919	18.44
545.262	18.42
545.606	18.41
545.95	18.35
546.293	18.32
546.637	18.29
546.98	18.27
547.324	18.22
547.667	18.18
548.011	18.09
548.354	18.02
548.697	17.96
549.04	17.88
549.384	17.81
549.727	17.74
550.07	17.72
550.413	17.66
550.756	17.6
551.099	17.54
551.442	17.47
551.785	17.4
552.128	17.35
552.47	17.3
552.813	17.24
553.156	17.2
553.499	17.17
553.841	17.11
554.184	17.04
554.526	16.98
554.869	16.93
555.211	16.89
555.554	16.85
555.896	16.76
556.238	16.75
556.581	16.71
556.923	16.65
557.265	16.57
557.607	16.52
557.949	16.47
558.291	16.4
558.633	16.33
558.975	16.26
559.317	16.2
559.659	16.13
560.001	16.07
560.343	16
560.685	15.91
561.026	15.86
561.368	15.8
561.71	15.71
562.051	15.62
562.393	15.61
562.734	15.55
563.076	15.48
563.417	15.39
563.759	15.32
564.1	15.26
564.441	15.22
564.782	15.15
565.124	15.11
565.465	15.06
565.806	15.02
566.147	15.01
566.488	14.98
566.829	14.93
567.17	14.87
567.511	14.82
567.851	14.78
568.192	14.73
568.533	14.68
568.874	14.67
569.214	14.64
569.555	14.54
569.895	14.51
570.236	14.48
570.576	14.44
570.917	14.41
571.257	14.36
571.598	14.31
571.938	14.25
572.278	14.2
572.618	14.15
572.959	14.1
573.299	14.02
573.639	13.98
573.979	13.93
574.319	13.9
574.659	13.87
574.999	13.82
575.339	13.76
575.678	13.69
576.018	13.64
576.358	13.57
576.698	13.55
577.037	13.49
577.377	13.41
577.716	13.36
578.056	13.29
578.395	13.25
578.735	13.17
579.074	13.13
579.413	13.07
579.753	13.02
580.092	12.97
580.431	12.94
580.77	12.93
581.109	12.9
581.448	12.87
581.787	12.83
582.126	12.77
582.465	12.73
582.804	12.74
583.143	12.68
583.482	12.65
583.82	12.62
584.159	12.56
584.498	12.53
584.836	12.52
585.175	12.45
585.514	12.42
585.852	12.42
586.19	12.39
586.529	12.34
586.867	12.34
587.205	12.31
587.544	12.28
587.882	12.19
588.22	12.13
588.558	12.07
588.896	12.05
589.234	12.06
589.572	12.04
589.91	11.97
590.248	11.96
590.586	11.96
590.924	11.91
591.262	11.9
591.599	11.9
591.937	11.86
592.275	11.83
592.612	11.82
592.95	11.76
593.287	11.78
593.625	11.78
593.962	11.74
594.299	11.72
594.637	11.69
594.974	11.7
595.311	11.69
595.648	11.7
595.985	11.67
596.322	11.64
596.659	11.61
596.996	11.58
597.333	11.55
597.67	11.51
598.007	11.5
598.344	11.5
598.681	11.47
599.017	11.42
599.354	11.42
599.691	11.37
600.027	11.38
600.364	11.35
600.7	11.31
601.037	11.3
601.373	11.28
601.71	11.3
602.046	11.29
602.382	11.28
602.718	11.25
603.054	11.24
603.391	11.21
603.727	11.18
604.063	11.19
604.399	11.16
604.735	11.16
605.071	11.14
605.406	11.1
605.742	11.11
606.078	11.1
606.414	11.1
606.749	11.09
607.085	11.08
607.421	11.05
607.756	11.04
608.092	11.02
608.427	10.98
608.762	10.94
609.098	10.88
609.433	10.81
609.768	10.79
610.104	10.78
610.439	10.78
610.774	10.77
611.109	10.73
611.444	10.73
611.779	10.68
612.114	10.64
612.449	10.6
612.784	10.56
613.118	10.57
613.453	10.53
613.788	10.48
614.123	10.35
614.457	10.29
614.792	10.23
615.126	10.14
615.461	10.08
615.795	10
616.13	9.97
616.464	9.99
616.798	9.97
617.132	9.92
617.467	9.86
617.801	9.8
618.135	9.83
618.469	9.79
618.803	9.76
619.137	9.73
619.471	9.71
619.805	9.67
620.139	9.6
620.472	9.58
620.806	9.56
621.14	9.6
621.473	9.59
621.807	9.58
622.141	9.57
622.474	9.54
622.808	9.55
623.141	9.59
623.474	9.56
623.808	9.57
624.141	9.55
624.474	9.61
624.807	9.63
625.141	9.61
625.474	9.62
625.807	9.61
626.14	9.6
626.473	9.6
626.806	9.6
627.138	9.61
627.471	9.58
627.804	9.59
628.137	9.59
628.469	9.56
628.802	9.52
629.135	9.5
629.467	9.5
629.8	9.48
630.132	9.46
630.465	9.44
630.797	9.37
631.129	9.36
631.461	9.3
631.794	9.31
632.126	9.25
632.458	9.23
632.79	9.26
633.122	9.25
633.454	9.24
633.786	9.2
634.118	9.18
634.45	9.16
634.781	9.11
635.113	9.09
635.445	9.08
635.777	9.07
636.108	9.07
636.44	9.03
636.771	8.97
637.103	8.94
637.434	8.89
637.765	8.9
638.097	8.86
638.428	8.87
638.759	8.81
639.09	8.78
639.422	8.76
639.753	8.67
640.084	8.65
640.415	8.65
640.746	8.63
641.077	8.61
641.407	8.57
641.738	8.56
642.069	8.54
642.4	8.52
642.73	8.51
643.061	8.45
643.392	8.49
643.722	8.53
644.053	8.48
644.383	8.48
644.713	8.44
645.044	8.42
645.374	8.34
645.704	8.31
646.034	8.33
646.365	8.32
646.695	8.33
647.025	8.35
647.355	8.31
647.685	8.31
648.015	8.41
648.344	8.43
648.674	8.41
649.004	8.44
649.334	8.47
649.663	8.5
649.993	8.56
650.323	8.56
650.652	8.53
650.982	8.54
651.311	8.54
651.64	8.55
651.97	8.58
652.299	8.64
652.628	8.64
652.958	8.65
653.287	8.66
653.616	8.64
653.945	8.57
654.274	8.56
654.603	8.54
654.932	8.43
655.261	8.44
655.589	8.47
655.918	8.5
656.247	8.53
656.576	8.58
656.904	8.62
657.233	8.67
657.561	8.67
657.89	8.71
658.218	8.67
658.547	8.68
658.875	8.66
659.203	8.64
659.532	8.64
659.86	8.61
660.188	8.61
660.516	8.63
660.844	8.62
661.172	8.65
661.5	8.66
661.828	8.66
662.156	8.62
662.484	8.56
662.811	8.49
663.139	8.44
663.467	8.35
663.794	8.25
664.122	8.14
664.45	8.13
664.777	8.07
665.104	8.09
665.432	8.04
665.759	7.98
666.086	7.94
666.414	7.96
666.741	7.94
667.068	7.93
667.395	7.91
667.722	7.94
668.049	7.9
668.376	7.85
668.703	7.86
669.03	7.86
669.357	7.86
669.683	7.82
670.01	7.83
670.337	7.87
670.663	7.89
670.99	7.89
671.317	7.89
671.643	7.92
671.969	7.97
672.296	7.99
672.622	8.03
672.948	8.06
673.275	7.99
673.601	7.97
673.927	7.99
674.253	8.04
674.579	8.04
674.905	8.06
675.231	8.13
675.557	8.14
675.883	8.19
676.209	8.26
676.534	8.3
676.86	8.24
677.186	8.24
677.511	8.31
677.837	8.34
678.162	8.31
678.488	8.33
678.813	8.31
679.139	8.35
679.464	8.39
679.789	8.4
680.114	8.48
680.44	8.52
680.765	8.5
681.09	8.45
681.415	8.4
681.74	8.4
682.065	8.4
682.39	8.4
682.714	8.38
683.039	8.32
683.364	8.32
683.689	8.37
684.013	8.31
684.338	8.27
684.662	8.29
684.987	8.3
685.311	8.25
685.636	8.2
685.96	8.14
686.284	8.05
686.608	8
686.933	7.95
687.257	7.93
687.581	7.89
687.905	7.88
688.229	7.95
688.553	7.9
688.877	7.83
689.201	7.81
689.524	7.73
689.848	7.71
690.172	7.69
690.496	7.6
690.819	7.6
691.143	7.56
691.466	7.49
691.79	7.47
692.113	7.43
692.436	7.41
692.76	7.38
693.083	7.41
693.406	7.42
693.729	7.34
694.053	7.33
694.376	7.33
694.699	7.4
695.022	7.47
695.344	7.65
695.667	7.81
695.99	7.94
696.313	8.06
696.636	8.2
696.958	8.25
697.281	8.35
697.604	8.4
697.926	8.37
698.249	8.37
698.571	8.37
698.893	8.36
699.216	8.34
699.538	8.36
699.86	8.31
700.182	8.31
700.504	8.32
700.827	8.32
701.149	8.38
701.471	8.29
701.793	8.21
702.114	7.99
702.436	7.82
702.758	7.6
703.08	7.46
703.401	7.25
703.723	7.12
704.045	7.01
704.366	6.94
704.688	6.99
705.009	6.98
705.331	7.03
705.652	7.09
705.973	7.22
706.294	7.24
706.616	7.3
706.937	7.3
707.258	7.34
707.579	7.43
707.9	7.41
708.221	7.51
708.542	7.51
708.863	7.69
709.183	7.73
709.504	7.8
709.825	7.9
710.145	7.94
710.466	7.92
710.787	7.9
711.107	7.85
711.427	7.71
711.748	7.67
712.068	7.61
712.388	7.69
712.709	7.65
713.029	7.68
713.349	7.65
713.669	7.75
713.989	7.85
714.309	7.89
714.629	7.85
714.949	7.86
715.269	7.75
715.589	7.63
715.908	7.66
716.228	7.7
716.548	7.64
716.867	7.63
717.187	7.58
717.506	7.62
717.826	7.67
718.145	7.77
718.465	7.88
718.784	7.99
719.103	7.87
719.422	7.86
719.741	7.81
720.061	8.04
720.38	8.06
720.699	8.02
721.018	7.99
721.336	8.19
721.655	8.34
721.974	8.6
722.293	8.84
722.612	8.91
722.93	9.03
723.249	9.25
723.567	9.45
723.886	9.63
724.204	9.71
724.523	9.83
724.841	10.03
725.159	10.2
725.477	10.26
725.796	10.48
726.114	10.64
726.432	10.78
726.75	10.75
727.068	10.76
727.386	10.91
727.704	11.07
728.022	11.12
728.339	11.08
728.657	11.22
728.975	11.25
729.292	11.45
729.61	11.56
729.928	11.62
730.245	11.64
730.562	11.75
730.88	11.96
731.197	12.16
731.514	12.27
731.832	12.41
732.149	12.54
732.466	12.61
732.783	12.8
733.1	13
733.417	13.21
733.734	13.44
734.051	13.53
734.368	13.65
734.684	13.77
735.001	13.95
735.318	14.03
735.634	14.17
735.951	14.21
736.268	14.43
736.584	14.56
736.9	14.76
737.217	14.92
737.533	14.98
737.849	15.05
738.166	15.12
738.482	15.13
738.798	15.29
739.114	15.52
739.43	15.53
739.746	15.48
740.062	15.54
740.378	15.71
740.693	15.91
741.009	16.05
741.325	16.25
741.641	16.49
741.956	16.64
742.272	16.76
742.587	16.93
742.903	16.92
743.218	17.07
743.533	17.22
743.849	17.34
744.164	17.38
744.479	17.5
744.794	17.63
745.109	17.7
745.424	17.78
745.739	17.88
746.054	18.03
746.369	18.36
746.684	18.4
746.999	18.3
747.313	18.27
747.628	18.25
747.943	18.33
748.257	18.26
748.572	18.39
748.886	18.53
749.201	18.53
749.515	18.62
749.829	18.79
750.144	18.91
750.458	19.14
750.772	19.36
751.086	19.39
751.4	19.54
751.714	19.64
752.028	19.76
752.342	19.76
752.656	19.92
752.97	19.93
753.284	20.11
753.597	20.29
753.911	20.48
754.225	20.61
754.538	20.65
754.852	20.83
755.165	20.83
755.478	20.97
755.792	21.07
756.105	21.13
756.418	21.16
756.731	21.06
757.045	21.06
757.358	21.21
757.671	21.43
757.984	21.47
758.297	21.62
758.609	21.66
758.922	21.75
759.235	21.74
759.548	21.63
759.86	21.53
760.173	21.34
760.486	21.04
760.798	20.89
761.111	20.69
761.423	20.6
761.735	20.49
762.048	20.44
762.36	20.49
762.672	20.61
762.984	20.71
763.296	20.85
763.608	20.86
763.92	20.81
764.232	20.86
764.544	21.01
764.856	21.07
765.168	21.21
765.48	21.37
765.791	21.52
766.103	21.79
766.414	22.04
766.726	22.43
767.037	22.77
767.349	23.17
767.66	23.73
767.972	24.13
768.283	24.76
768.594	25.09
768.905	25.44
769.216	25.58
769.527	25.93
769.838	26.35
770.149	26.68
770.46	27.14
770.771	27.35
771.082	27.45
771.393	27.67
771.703	27.91
772.014	28.06
772.324	28.37
772.635	28.65
772.945	28.79
773.256	29.04
773.566	29.36
773.877	29.58
774.187	29.73
774.497	29.78
774.807	29.66
775.117	29.73
775.427	29.93
775.737	30.17
776.047	30.04
776.357	30.1
776.667	30.53
776.977	30.75
777.287	30.81
777.596	30.99
777.906	30.91
778.216	30.77
778.525	30.79
778.835	30.83
779.144	31
779.453	31.21
779.763	31.23
780.072	31.57
780.381	31.62
780.69	31.78
781	32.13
781.309	32.5
781.618	32.79
781.927	33.04
782.235	33.08
782.544	33.36
782.853	33.36
783.162	33.05
783.471	33.07
783.779	33.07
784.088	32.94
784.396	33.2
784.705	33.35
785.013	33.27
785.322	33.09
785.63	32.71
785.938	32.51
786.246	32.43
786.554	32.23
786.863	32.35
787.171	31.97
787.479	31.8
787.787	31.77
788.094	31.6
788.402	31.35
788.71	31.42
789.018	31.3
789.326	31.32
789.633	31.66
789.941	31.7
790.248	31.91
790.556	32.28
790.863	32.32
791.171	32.51
791.478	32.89
791.785	33.19
792.092	33.64
792.399	33.74
792.707	34.22
793.014	34.48
793.321	34.49
793.628	34.65
793.934	34.79
794.241	34.61
794.548	34.9
794.855	34.97
795.161	34.96
795.468	35.04
795.775	35.22
796.081	34.87
796.388	34.6
796.694	34.62
797	34.61
797.307	34.75
797.613	34.56
797.919	34.31
798.225	34.19
798.531	34.23
798.837	34.51
799.143	34.28
799.449	34.23
799.755	34.67
800.061	35.01
800.367	35.29
800.672	35.63
800.978	35.73
801.284	35.96
801.589	36.3
801.895	36.44
802.2	36.37
802.506	36.54
802.811	36.84
803.116	37.09
803.421	36.81
803.727	36.75
804.032	37.05
804.337	37.48
804.642	37.66
804.947	37.66
805.252	37.81
805.556	37.79
805.861	38.24
806.166	37.79
806.471	37.8
806.775	37.69
807.08	37.89
807.384	37.89
807.689	37.88
807.993	37.88
808.298	38.21
808.602	38.31
808.906	38.41
809.211	38.63
809.515	38.53
809.819	38.86
810.123	39.1
810.427	39.26
810.731	39.16
811.035	39.39
811.338	39.55
811.642	39.71
811.946	40.18
812.25	40.09
812.553	40.56
812.857	40.59
813.16	40.63
813.464	40.55
813.767	40.66
814.07	41.05
814.374	41.18
814.677	41.01
814.98	40.99
815.283	41.01
815.586	40.91
815.889	40.81
816.192	41.08
816.495	40.9
816.798	40.31
817.101	39.91
817.404	39.23
817.706	38.56
818.009	37.47
818.312	36.16
818.614	34.93
818.917	33.28
819.219	31.14
819.521	29.04
819.824	27.01
820.126	25.33
820.428	24.15
820.73	23.29
821.032	22.57
821.334	22.1
821.636	21.8
821.938	21.55
822.24	21.36
822.542	21.15
822.844	21.12
823.145	21.14
823.447	21.05
823.749	20.96
824.05	20.75
824.352	20.63
824.653	20.61
824.955	20.5
825.256	20.43
825.557	20.54
825.858	20.73
826.16	21.05
826.461	21.63
826.762	22.1
827.063	22.5
827.364	23.04
827.665	23.6
827.965	24.05
828.266	24.62
828.567	25.05
828.868	25.48
829.168	25.71
829.469	25.91
829.769	26.31
830.07	26.61
830.37	27.13
830.67	27.76
830.971	28.22
831.271	28.82
831.571	29.3
831.871	29.6
832.171	29.89
832.471	30.14
832.771	29.89
833.071	29.93
833.371	30.4
833.671	30.51
833.971	30.84
834.27	31.09
834.57	31.02
834.869	31.08
835.169	31.27
835.468	31.32
835.768	31.21
836.067	31.34
836.367	31.56
836.666	32.11
836.965	32.62
837.264	33.47
837.563	34.31
837.862	35.3
838.161	36.39
838.46	37.41
838.759	38.27
839.058	39.55
839.356	40.57
839.655	41.44
839.954	42.49
840.252	43.2
840.551	43.58
840.849	43.75
841.148	44.38
841.446	44.74
841.744	45.32
842.043	46
842.341	46.21
842.639	46.52
842.937	46.32
843.235	46.92
843.533	47.4
843.831	48
844.129	49.13
844.427	49.84
844.724	50.71
845.022	52.17
845.32	53.2
845.617	54.04
845.915	55.42
846.212	56.26
846.51	56.53
846.807	58.09
847.104	58.68
847.402	58.88
847.699	58.38
847.996	58.87
848.293	59.37
848.59	59.44
848.887	60.14
849.184	60.9
849.481	61.46
849.778	61.93
850.074	61.95
850.371	62.25
850.668	62.79
850.964	63.21
851.261	63.71
851.557	63.15
851.854	63.04
852.15	62.06
852.446	62.56
852.743	62.47
853.039	61.82
853.335	62.72
853.631	63.91
853.927	64.78
854.223	64.21
854.519	63.82
854.815	63.69
855.111	62.64
855.406	62.6
855.702	62
855.998	61.54
856.293	61.67
856.589	61.62
856.884	61.8
857.18	61.88
857.475	61.12
857.77	61.92
858.066	62.18
858.361	62.57
858.656	62.35
858.951	62.72
859.246	63.35
859.541	63.04
859.836	61.76
860.131	61.34
860.426	61.48
860.72	62.32
861.015	62.43
861.31	63.6
861.604	64.17
861.899	64.32
862.193	65.05
862.487	65.79
862.782	66.5
863.076	66.39
863.37	65.42
863.664	65.58
863.959	65.37
864.253	64.96
864.547	64.8
864.841	64.26
865.135	64.07
865.428	62.6
865.722	63.13
866.016	64.23
866.31	65.06
866.603	65.26
866.897	64.87
867.19	65.21
867.484	65.1
867.777	65.02
868.07	65.16
868.364	64.89
868.657	64.6
868.95	63.02
869.243	62.69
869.536	63.18
869.829	62.63
870.122	62.79
870.415	63.02
870.708	63.35
871	62.57
871.293	62.15
871.586	62.55
871.878	60.61
872.171	60.54
872.463	59.98
872.756	59.32
873.048	59.81
873.341	59.42
873.633	59.12
873.925	58.58
874.217	58.07
874.509	57.07
874.801	56.31
875.093	56.81
875.385	57.22
875.677	57.45
875.969	58.31
