Data from pcis_p_h3_p2_Reflection_5.txt Node
Date: Wed Jul 12 17:52:35 ART 2017
User: rodoncho
Spectrometer: USB2E3644
Trigger mode: 4
Integration Time (sec): 6.000000E-2
Scans to average: 10
Electric dark correction enabled: true
Nonlinearity correction enabled: false
Boxcar width: 10
XAxis mode: Wavelengths
Number of Pixels in Spectrum: 2048
>>>>>Begin Spectral Data<<<<<
178.315	22.46
178.696	54.47
179.076	94.31
179.457	102.69
179.838	73.33
180.218	59.42
180.599	-11.4
180.979	58.33
181.36	148.72
181.74	-134.85
182.121	-8.33
182.501	120.14
182.881	157.84
183.262	263.81
183.642	5533.33
184.022	-106.06
184.402	-11.4
184.783	32.97
185.163	35.67
185.543	47.56
185.923	61.27
186.303	79.71
186.683	93.71
187.063	115.06
187.443	127.2
187.823	126.19
188.203	125.27
188.583	118.88
188.963	124.7
189.343	123.86
189.723	132.82
190.102	134.7
190.482	132.97
190.862	135.98
191.242	141.62
191.621	143.1
192.001	145.18
192.38	146.24
192.76	148.03
193.14	146.17
193.519	144.92
193.898	141.3
194.278	136.35
194.657	133.33
195.037	130.43
195.416	127.85
195.795	127.69
196.175	126.82
196.554	125.43
196.933	125.21
197.312	125.13
197.692	121.7
198.071	118.77
198.45	117
198.829	116.97
199.208	115.87
199.587	113.95
199.966	112.27
200.345	109.95
200.724	110.22
201.103	112.46
201.482	113.83
201.86	115.41
202.239	115.36
202.618	114.85
202.997	113.24
203.375	112.55
203.754	111.28
204.133	110.15
204.511	110.18
204.89	110.63
205.269	112
205.647	114.19
206.026	115.64
206.404	116.08
206.782	116.86
207.161	118.15
207.539	118.93
207.918	118.88
208.296	119.36
208.674	118.8
209.052	117.17
209.431	116.09
209.809	115.57
210.187	116.27
210.565	115.68
210.943	115.96
211.321	116.56
211.699	117.53
212.077	117.64
212.455	118.7
212.833	116.98
213.211	116.22
213.589	114.67
213.967	114.87
214.345	116.59
214.722	116.28
215.1	115.27
215.478	114.85
215.855	116.34
216.233	115.24
216.611	114.88
216.988	115.44
217.366	115.42
217.743	114.92
218.121	114.1
218.498	114.31
218.876	115.04
219.253	114.92
219.631	113.36
220.008	114.53
220.385	115.8
220.762	117.11
221.14	115.76
221.517	114.68
221.894	114.03
222.271	113.03
222.648	111.25
223.025	110.76
223.402	111.14
223.78	111.88
224.157	114.41
224.533	116.12
224.91	116.31
225.287	116.31
225.664	116.23
226.041	114.81
226.418	113.9
226.795	113.51
227.171	113.6
227.548	115.26
227.925	116.73
228.301	115.83
228.678	115.68
229.055	116.07
229.431	116.9
229.808	117.96
230.184	118.01
230.561	119.7
230.937	119.82
231.313	118.96
231.69	118.05
232.066	117.32
232.442	117.32
232.819	117.48
233.195	117.91
233.571	118.84
233.947	121.05
234.323	122.71
234.699	122.97
235.075	122.61
235.451	122.63
235.827	121.4
236.203	122.95
236.579	125.55
236.955	127.62
237.331	128.53
237.707	129.18
238.083	132
238.459	136.74
238.834	143.5
239.21	149.55
239.586	153.86
239.961	158.45
240.337	161.83
240.713	164.49
241.088	166.51
241.464	171.3
241.839	177.25
242.215	184.43
242.59	199.28
242.965	225.8
243.341	270.8
243.716	342.85
244.091	429.77
244.467	558.58
244.842	788.58
245.217	1173.89
245.592	1477.97
245.967	1753.26
246.343	1522.02
246.718	1379.57
247.093	1453.16
247.468	1663.04
247.843	2123.63
248.218	4509.91
248.593	-4736.19
248.967	-1630.07
249.342	-1163.15
249.717	-1244.11
250.092	-1306.88
250.467	-1630.67
250.841	-4272.81
251.216	2430.85
251.591	1008.44
251.965	662.27
252.34	510.91
252.714	452.06
253.089	421.51
253.463	416.13
253.838	430.7
254.212	453.92
254.587	480.59
254.961	572.22
255.335	848.37
255.71	3821.48
256.084	-1022.42
256.458	-446.89
256.832	-291.26
257.206	-238.69
257.581	-210.53
257.955	-196.54
258.329	-187.25
258.703	-175.62
259.077	-166.93
259.451	-157.85
259.825	-147.15
260.199	-141.51
260.572	-137.41
260.946	-132.89
261.32	-129.83
261.694	-126.11
262.068	-123.97
262.441	-120.69
262.815	-119.08
263.189	-118.34
263.562	-125.72
263.936	-143.14
264.309	-174.16
264.683	-214.34
265.056	-245.28
265.43	-259.4
265.803	-257.86
266.176	-244.14
266.55	-237.82
266.923	-228.24
267.296	-222.87
267.67	-207.58
268.043	-185.73
268.416	-168.29
268.789	-152.31
269.162	-135.12
269.535	-124.26
269.908	-116.45
270.281	-111.07
270.654	-108.9
271.027	-111.39
271.4	-112.82
271.773	-114.17
272.146	-113.64
272.519	-110.6
272.891	-107.01
273.264	-105.3
273.637	-103.68
274.01	-105.22
274.382	-103.72
274.755	-101.46
275.127	-99.84
275.5	-101.68
275.872	-101.2
276.245	-100.46
276.617	-101.92
276.99	-106.52
277.362	-109.77
277.734	-111.72
278.107	-112.01
278.479	-108.31
278.851	-104.69
279.223	-98.94
279.596	-95.05
279.968	-91.38
280.34	-91.26
280.712	-88.24
281.084	-83.26
281.456	-76.77
281.828	-69.98
282.2	-64.7
282.572	-60.21
282.944	-57.37
283.315	-55.75
283.687	-55.41
284.059	-55.73
284.431	-55.37
284.802	-54.78
285.174	-53.65
285.546	-52.57
285.917	-51.83
286.289	-51.25
286.66	-49.8
287.032	-49.92
287.403	-49.43
287.775	-49.43
288.146	-49.25
288.518	-49.77
288.889	-49.95
289.26	-51.08
289.632	-52.21
290.003	-53.64
290.374	-55.64
290.745	-56.59
291.116	-56.2
291.487	-54.56
291.858	-53.02
292.229	-52
292.6	-50.14
292.971	-48.41
293.342	-46.03
293.713	-43.86
294.084	-42.27
294.455	-41.32
294.826	-40.17
295.196	-39.95
295.567	-39.67
295.938	-39.08
296.308	-38.64
296.679	-37.78
297.05	-37.23
297.42	-36.77
297.791	-35.86
298.161	-34.42
298.532	-33.24
298.902	-32.75
299.272	-32.44
299.643	-31.92
300.013	-31.1
300.383	-30.74
300.754	-30.52
301.124	-30.7
301.494	-30.91
301.864	-31.18
302.234	-31.59
302.604	-31.53
302.974	-30.95
303.344	-30.5
303.714	-30.03
304.084	-29.09
304.454	-28.68
304.824	-27.78
305.194	-26.94
305.563	-26.21
305.933	-25.2
306.303	-24.22
306.673	-23.24
307.042	-22.39
307.412	-21.39
307.781	-20.37
308.151	-19.67
308.521	-19.11
308.89	-18.76
309.259	-18.12
309.629	-17.28
309.998	-16.76
310.368	-16.36
310.737	-16.32
311.106	-15.96
311.475	-15.28
311.845	-15.13
312.214	-14.61
312.583	-14.3
312.952	-13.94
313.321	-13.75
313.69	-14.13
314.059	-14.59
314.428	-14.9
314.797	-15.25
315.166	-16.05
315.535	-16.58
315.904	-16.62
316.272	-16.69
316.641	-16.84
317.01	-17.28
317.379	-17.61
317.747	-17.51
318.116	-17.32
318.484	-16.68
318.853	-16.01
319.221	-15.74
319.59	-15.42
319.958	-15.34
320.327	-14.9
320.695	-14.32
321.063	-13.92
321.432	-13.13
321.8	-12.4
322.168	-11.47
322.536	-10.47
322.905	-9.12
323.273	-8.43
323.641	-8.07
324.009	-8.1
324.377	-7.66
324.745	-7.33
325.113	-7.2
325.481	-6.58
325.849	-6.03
326.216	-5.63
326.584	-5.43
326.952	-5.28
327.32	-4.77
327.687	-4.21
328.055	-3.76
328.423	-3.74
328.79	-3.65
329.158	-3.73
329.525	-3.36
329.893	-3.08
330.26	-2.81
330.628	-3.07
330.995	-3.03
331.362	-2.77
331.73	-1.93
332.097	-1.64
332.464	-1.32
332.831	-0.81
333.199	-0.5
333.566	-0.29
333.933	-0.19
334.3	-0.04
334.667	0.23
335.034	0.49
335.401	0.53
335.768	0.49
336.135	0.73
336.502	0.98
336.868	1.35
337.235	1.62
337.602	1.86
337.969	2
338.335	2.37
338.702	2.73
339.069	2.97
339.435	2.97
339.802	3.19
340.168	3.63
340.535	3.93
340.901	4.09
341.267	4.22
341.634	4.53
342	4.82
342.366	4.94
342.733	5.12
343.099	5.35
343.465	5.72
343.831	5.92
344.197	6.12
344.563	6.15
344.929	6.2
345.295	6.35
345.661	6.5
346.027	6.65
346.393	6.73
346.759	6.72
347.125	6.8
347.491	6.89
347.856	6.76
348.222	6.7
348.588	6.77
348.953	6.91
349.319	7
349.684	7.05
350.05	7.29
350.415	7.39
350.781	7.5
351.146	7.58
351.512	7.74
351.877	7.8
352.242	7.95
352.608	7.9
352.973	7.89
353.338	7.98
353.703	8.02
354.068	8.05
354.433	8.22
354.798	8.5
355.164	8.62
355.528	8.71
355.893	8.79
356.258	8.9
356.623	8.89
356.988	9.03
357.353	9.27
357.718	9.38
358.082	9.48
358.447	9.41
358.812	9.41
359.176	9.38
359.541	9.43
359.905	9.54
360.27	9.77
360.634	9.86
360.999	9.83
361.363	9.92
361.728	10.04
362.092	10.03
362.456	9.98
362.821	9.94
363.185	9.98
363.549	10.05
363.913	9.98
364.277	10.02
364.641	9.99
365.005	9.96
365.369	9.89
365.733	9.95
366.097	10.07
366.461	10.04
366.825	10.17
367.189	10.3
367.553	10.33
367.916	10.36
368.28	10.36
368.644	10.52
369.007	10.64
369.371	10.72
369.734	10.87
370.098	10.9
370.461	11.01
370.825	11.12
371.188	11.28
371.552	11.39
371.915	11.48
372.278	11.59
372.642	11.69
373.005	11.76
373.368	11.75
373.731	11.82
374.094	11.94
374.457	11.92
374.82	11.91
375.183	11.91
375.546	11.92
375.909	12.03
376.272	11.97
376.635	11.88
376.998	11.86
377.361	11.88
377.723	11.88
378.086	11.91
378.449	11.96
378.811	11.91
379.174	11.94
379.537	12
379.899	12.06
380.262	12.07
380.624	12.04
380.987	12.03
381.349	12.03
381.711	12.06
382.074	12.1
382.436	12.15
382.798	12.19
383.16	12.17
383.522	12.17
383.884	12.27
384.247	12.35
384.609	12.35
384.971	12.38
385.333	12.47
385.695	12.48
386.056	12.45
386.418	12.46
386.78	12.5
387.142	12.46
387.504	12.41
387.865	12.31
388.227	12.34
388.589	12.4
388.95	12.38
389.312	12.34
389.673	12.35
390.035	12.36
390.396	12.33
390.758	12.32
391.119	12.28
391.48	12.25
391.842	12.21
392.203	12.15
392.564	12.09
392.925	12.04
393.286	12.01
393.648	12.01
394.009	11.97
394.37	11.93
394.731	11.89
395.092	11.83
395.452	11.83
395.813	11.82
396.174	11.73
396.535	11.72
396.896	11.71
397.257	11.68
397.617	11.63
397.978	11.63
398.338	11.63
398.699	11.67
399.06	11.62
399.42	11.58
399.781	11.57
400.141	11.54
400.501	11.5
400.862	11.47
401.222	11.44
401.582	11.42
401.943	11.38
402.303	11.36
402.663	11.33
403.023	11.31
403.383	11.31
403.743	11.32
404.103	11.32
404.463	11.33
404.823	11.33
405.183	11.28
405.543	11.26
405.903	11.27
406.262	11.21
406.622	11.19
406.982	11.22
407.342	11.25
407.701	11.26
408.061	11.25
408.42	11.23
408.78	11.21
409.139	11.19
409.499	11.2
409.858	11.22
410.217	11.24
410.577	11.26
410.936	11.23
411.295	11.2
411.655	11.16
412.014	11.08
412.373	11.02
412.732	10.98
413.091	10.96
413.45	10.87
413.809	10.83
414.168	10.76
414.527	10.65
414.886	10.55
415.245	10.48
415.603	10.41
415.962	10.31
416.321	10.22
416.679	10.11
417.038	9.98
417.397	9.88
417.755	9.78
418.114	9.68
418.472	9.61
418.831	9.54
419.189	9.48
419.547	9.41
419.906	9.35
420.264	9.27
420.622	9.19
420.981	9.12
421.339	9.05
421.697	8.99
422.055	8.94
422.413	8.9
422.771	8.87
423.129	8.84
423.487	8.83
423.845	8.81
424.203	8.8
424.56	8.82
424.918	8.82
425.276	8.84
425.634	8.87
425.991	8.84
426.349	8.84
426.707	8.85
427.064	8.86
427.422	8.88
427.779	8.92
428.137	8.95
428.494	9.01
428.851	9.05
429.209	9.11
429.566	9.15
429.923	9.19
430.28	9.21
430.637	9.22
430.995	9.22
431.352	9.24
431.709	9.29
432.066	9.31
432.423	9.34
432.78	9.35
433.137	9.38
433.493	9.43
433.85	9.47
434.207	9.44
434.564	9.46
434.92	9.47
435.277	9.47
435.634	9.49
435.99	9.48
436.347	9.49
436.703	9.49
437.06	9.49
437.416	9.49
437.773	9.47
438.129	9.48
438.485	9.5
438.841	9.49
439.198	9.49
439.554	9.47
439.91	9.46
440.266	9.43
440.622	9.4
440.978	9.37
441.334	9.32
441.69	9.29
442.046	9.25
442.402	9.18
442.758	9.11
443.113	9.06
443.469	9
443.825	8.97
444.181	8.93
444.536	8.9
444.892	8.85
445.247	8.82
445.603	8.8
445.958	8.75
446.314	8.72
446.669	8.67
447.025	8.63
447.38	8.59
447.735	8.55
448.09	8.52
448.446	8.49
448.801	8.46
449.156	8.44
449.511	8.43
449.866	8.43
450.221	8.46
450.576	8.45
450.931	8.45
451.286	8.42
451.641	8.41
451.995	8.4
452.35	8.41
452.705	8.41
453.06	8.41
453.414	8.42
453.769	8.42
454.123	8.44
454.478	8.46
454.832	8.48
455.187	8.49
455.541	8.49
455.896	8.48
456.25	8.47
456.604	8.49
456.958	8.51
457.313	8.55
457.667	8.57
458.021	8.6
458.375	8.66
458.729	8.71
459.083	8.76
459.437	8.82
459.791	8.87
460.145	8.91
460.499	8.96
460.852	9.02
461.206	9.1
461.56	9.17
461.914	9.23
462.267	9.29
462.621	9.4
462.974	9.52
463.328	9.67
463.681	9.82
464.035	9.96
464.388	10.11
464.742	10.25
465.095	10.37
465.448	10.5
465.801	10.6
466.155	10.7
466.508	10.8
466.861	10.89
467.214	10.98
467.567	11.07
467.92	11.15
468.273	11.25
468.626	11.31
468.979	11.37
469.332	11.43
469.684	11.5
470.037	11.54
470.39	11.59
470.743	11.61
471.095	11.66
471.448	11.69
471.8	11.72
472.153	11.72
472.505	11.75
472.858	11.73
473.21	11.7
473.562	11.66
473.915	11.6
474.267	11.55
474.619	11.49
474.971	11.41
475.324	11.36
475.676	11.25
476.028	11.16
476.38	11.08
476.732	10.99
477.084	10.89
477.436	10.77
477.787	10.63
478.139	10.55
478.491	10.42
478.843	10.29
479.195	10.14
479.546	9.92
479.898	9.63
480.249	9.39
480.601	9.19
480.952	9.05
481.304	8.96
481.655	8.9
482.007	8.84
482.358	8.8
482.709	8.76
483.061	8.71
483.412	8.68
483.763	8.64
484.114	8.61
484.465	8.59
484.816	8.57
485.167	8.58
485.518	8.57
485.869	8.58
486.22	8.59
486.571	8.61
486.922	8.65
487.272	8.72
487.623	8.83
487.974	8.93
488.324	9.04
488.675	9.14
489.025	9.24
489.376	9.33
489.726	9.42
490.077	9.52
490.427	9.63
490.778	9.75
491.128	9.91
491.478	10.08
491.828	10.29
492.179	10.5
492.529	10.69
492.879	10.91
493.229	11.12
493.579	11.31
493.929	11.5
494.279	11.7
494.629	11.93
494.979	12.2
495.328	12.52
495.678	12.9
496.028	13.26
496.378	13.59
496.727	13.9
497.077	14.18
497.426	14.46
497.776	14.73
498.125	14.99
498.475	15.23
498.824	15.48
499.174	15.71
499.523	15.94
499.872	16.2
500.221	16.46
500.571	16.74
500.92	17.02
501.269	17.3
501.618	17.56
501.967	17.81
502.316	18.05
502.665	18.28
503.014	18.51
503.363	18.76
503.711	18.97
504.06	19.15
504.409	19.32
504.758	19.49
505.106	19.65
505.455	19.82
505.803	19.95
506.152	20.09
506.5	20.21
506.849	20.34
507.197	20.45
507.546	20.57
507.894	20.66
508.242	20.8
508.59	20.86
508.939	20.94
509.287	21.02
509.635	21.08
509.983	21.16
510.331	21.22
510.679	21.27
511.027	21.3
511.375	21.36
511.723	21.45
512.07	21.5
512.418	21.57
512.766	21.61
513.114	21.65
513.461	21.66
513.809	21.68
514.156	21.69
514.504	21.71
514.851	21.68
515.199	21.67
515.546	21.65
515.893	21.67
516.241	21.66
516.588	21.65
516.935	21.65
517.282	21.66
517.63	21.64
517.977	21.65
518.324	21.67
518.671	21.68
519.018	21.67
519.365	21.66
519.711	21.62
520.058	21.61
520.405	21.59
520.752	21.59
521.099	21.6
521.445	21.6
521.792	21.53
522.138	21.51
522.485	21.47
522.832	21.45
523.178	21.44
523.524	21.44
523.871	21.4
524.217	21.33
524.563	21.24
524.91	21.14
525.256	21.03
525.602	20.93
525.948	20.88
526.294	20.83
526.64	20.8
526.986	20.79
527.332	20.77
527.678	20.77
528.024	20.76
528.37	20.73
528.716	20.7
529.061	20.68
529.407	20.65
529.753	20.62
530.098	20.57
530.444	20.51
530.789	20.48
531.135	20.46
531.48	20.46
531.826	20.46
532.171	20.46
532.516	20.45
532.862	20.45
533.207	20.4
533.552	20.37
533.897	20.33
534.242	20.29
534.587	20.24
534.932	20.21
535.277	20.18
535.622	20.16
535.967	20.13
536.312	20.1
536.657	20.08
537.001	20.02
537.346	19.97
537.691	19.88
538.035	19.78
538.38	19.71
538.724	19.64
539.069	19.58
539.413	19.52
539.758	19.46
540.102	19.42
540.446	19.39
540.791	19.35
541.135	19.32
541.479	19.28
541.823	19.26
542.167	19.19
542.512	19.15
542.856	19.1
543.2	19.07
543.543	19.03
543.887	18.99
544.231	18.98
544.575	18.96
544.919	18.95
545.262	18.94
545.606	18.91
545.95	18.86
546.293	18.82
546.637	18.79
546.98	18.78
547.324	18.75
547.667	18.71
548.011	18.64
548.354	18.58
548.697	18.53
549.04	18.46
549.384	18.42
549.727	18.37
550.07	18.32
550.413	18.26
550.756	18.2
551.099	18.16
551.442	18.09
551.785	18.02
552.128	17.97
552.47	17.89
552.813	17.82
553.156	17.75
553.499	17.7
553.841	17.64
554.184	17.54
554.526	17.48
554.869	17.42
555.211	17.38
555.554	17.34
555.896	17.27
556.238	17.21
556.581	17.17
556.923	17.07
557.265	17
557.607	16.9
557.949	16.84
558.291	16.77
558.633	16.72
558.975	16.66
559.317	16.61
559.659	16.57
560.001	16.53
560.343	16.47
560.685	16.39
561.026	16.33
561.368	16.25
561.71	16.14
562.051	16.06
562.393	15.99
562.734	15.92
563.076	15.85
563.417	15.8
563.759	15.72
564.1	15.69
564.441	15.65
564.782	15.62
565.124	15.56
565.465	15.48
565.806	15.42
566.147	15.35
566.488	15.3
566.829	15.23
567.17	15.14
567.511	15.09
567.851	15.05
568.192	14.97
568.533	14.93
568.874	14.91
569.214	14.87
569.555	14.81
569.895	14.78
570.236	14.75
570.576	14.68
570.917	14.64
571.257	14.58
571.598	14.5
571.938	14.45
572.278	14.41
572.618	14.38
572.959	14.35
573.299	14.28
573.639	14.22
573.979	14.17
574.319	14.13
574.659	14.09
574.999	14.03
575.339	13.99
575.678	13.92
576.018	13.84
576.358	13.77
576.698	13.68
577.037	13.57
577.377	13.51
577.716	13.44
578.056	13.37
578.395	13.3
578.735	13.26
579.074	13.19
579.413	13.12
579.753	13.04
580.092	12.98
580.431	12.95
580.77	12.89
581.109	12.84
581.448	12.74
581.787	12.66
582.126	12.61
582.465	12.56
582.804	12.55
583.143	12.5
583.482	12.45
583.82	12.43
584.159	12.42
584.498	12.33
584.836	12.31
585.175	12.28
585.514	12.26
585.852	12.22
586.19	12.22
586.529	12.19
586.867	12.2
587.205	12.18
587.544	12.17
587.882	12.16
588.22	12.12
588.558	12.13
588.896	12.13
589.234	12.12
589.572	12.09
589.91	12.03
590.248	12.01
590.586	11.98
590.924	11.95
591.262	11.9
591.599	11.93
591.937	11.9
592.275	11.83
592.612	11.81
592.95	11.78
593.287	11.75
593.625	11.74
593.962	11.73
594.299	11.7
594.637	11.67
594.974	11.64
595.311	11.64
595.648	11.6
595.985	11.6
596.322	11.56
596.659	11.55
596.996	11.5
597.333	11.44
597.67	11.41
598.007	11.37
598.344	11.35
598.681	11.29
599.017	11.26
599.354	11.25
599.691	11.22
600.027	11.18
600.364	11.15
600.7	11.11
601.037	11.05
601.373	11.02
601.71	11.03
602.046	11.01
602.382	10.97
602.718	10.99
603.054	10.94
603.391	10.91
603.727	10.91
604.063	10.92
604.399	10.95
604.735	10.92
605.071	10.94
605.406	10.95
605.742	10.95
606.078	10.96
606.414	10.95
606.749	10.93
607.085	10.91
607.421	10.87
607.756	10.85
608.092	10.8
608.427	10.73
608.762	10.65
609.098	10.6
609.433	10.57
609.768	10.5
610.104	10.49
610.439	10.46
610.774	10.41
611.109	10.37
611.444	10.31
611.779	10.26
612.114	10.2
612.449	10.12
612.784	10.05
613.118	10
613.453	9.92
613.788	9.85
614.123	9.76
614.457	9.66
614.792	9.6
615.126	9.52
615.461	9.48
615.795	9.4
616.13	9.35
616.464	9.3
616.798	9.26
617.132	9.22
617.467	9.19
617.801	9.17
618.135	9.15
618.469	9.17
618.803	9.13
619.137	9.14
619.471	9.1
619.805	9.07
620.139	9.02
620.472	8.99
620.806	8.98
621.14	8.96
621.473	9.01
621.807	9.01
622.141	9.02
622.474	8.99
622.808	9.01
623.141	9.01
623.474	9.01
623.808	9.06
624.141	9.08
624.474	9.06
624.807	9.06
625.141	9.06
625.474	9.06
625.807	9.08
626.14	9.06
626.473	9.08
626.806	9.1
627.138	9.14
627.471	9.12
627.804	9.14
628.137	9.12
628.469	9.03
628.802	9
629.135	8.99
629.467	9
629.8	8.98
630.132	8.97
630.465	8.98
630.797	8.93
631.129	8.89
631.461	8.88
631.794	8.88
632.126	8.83
632.458	8.79
632.79	8.78
633.122	8.75
633.454	8.75
633.786	8.69
634.118	8.63
634.45	8.62
634.781	8.59
635.113	8.58
635.445	8.6
635.777	8.59
636.108	8.57
636.44	8.57
636.771	8.55
637.103	8.48
637.434	8.4
637.765	8.37
638.097	8.29
638.428	8.24
638.759	8.15
639.09	8.11
639.422	8.08
639.753	8.06
640.084	8.05
640.415	8.02
640.746	8
641.077	7.94
641.407	7.91
641.738	7.84
642.069	7.86
642.4	7.83
642.73	7.83
643.061	7.81
643.392	7.8
643.722	7.79
644.053	7.77
644.383	7.77
644.713	7.69
645.044	7.74
645.374	7.71
645.704	7.71
646.034	7.74
646.365	7.75
646.695	7.73
647.025	7.75
647.355	7.74
647.685	7.75
648.015	7.8
648.344	7.84
648.674	7.86
649.004	7.85
649.334	7.87
649.663	7.85
649.993	7.86
650.323	7.87
650.652	7.84
650.982	7.84
651.311	7.85
651.64	7.89
651.97	7.89
652.299	7.91
652.628	7.93
652.958	7.92
653.287	7.94
653.616	7.95
653.945	7.94
654.274	7.87
654.603	7.88
654.932	7.85
655.261	7.83
655.589	7.85
655.918	7.88
656.247	7.93
656.576	8.01
656.904	8.08
657.233	8.13
657.561	8.14
657.89	8.2
658.218	8.18
658.547	8.21
658.875	8.22
659.203	8.23
659.532	8.25
659.86	8.25
660.188	8.23
660.516	8.23
660.844	8.23
661.172	8.23
661.5	8.21
661.828	8.18
662.156	8.15
662.484	8.1
662.811	8.05
663.139	7.98
663.467	7.89
663.794	7.78
664.122	7.69
664.45	7.68
664.777	7.64
665.104	7.67
665.432	7.58
665.759	7.54
666.086	7.49
666.414	7.45
666.741	7.47
667.068	7.47
667.395	7.48
667.722	7.47
668.049	7.49
668.376	7.49
668.703	7.53
669.03	7.54
669.357	7.5
669.683	7.49
670.01	7.45
670.337	7.47
670.663	7.47
670.99	7.43
671.317	7.44
671.643	7.44
671.969	7.39
672.296	7.44
672.622	7.38
672.948	7.36
673.275	7.29
673.601	7.26
673.927	7.2
674.253	7.18
674.579	7.14
674.905	7.11
675.231	7.09
675.557	7.11
675.883	7.12
676.209	7.24
676.534	7.31
676.86	7.38
677.186	7.39
677.511	7.45
677.837	7.49
678.162	7.47
678.488	7.46
678.813	7.5
679.139	7.55
679.464	7.62
679.789	7.61
680.114	7.66
680.44	7.69
680.765	7.7
681.09	7.69
681.415	7.71
681.74	7.73
682.065	7.76
682.39	7.71
682.714	7.66
683.039	7.6
683.364	7.56
683.689	7.54
684.013	7.46
684.338	7.4
684.662	7.37
684.987	7.35
685.311	7.29
685.636	7.26
685.96	7.2
686.284	7.18
686.608	7.2
686.933	7.15
687.257	7.03
687.581	7.05
687.905	7.06
688.229	7.08
688.553	7.07
688.877	7.06
689.201	7.03
689.524	6.97
689.848	6.96
690.172	6.94
690.496	6.92
690.819	6.94
691.143	6.9
691.466	6.87
691.79	6.87
692.113	6.87
692.436	6.82
692.76	6.76
693.083	6.7
693.406	6.65
693.729	6.66
694.053	6.69
694.376	6.64
694.699	6.59
695.022	6.68
695.344	6.77
695.667	6.88
695.99	7.05
696.313	7.25
696.636	7.35
696.958	7.44
697.281	7.5
697.604	7.53
697.926	7.6
698.249	7.62
698.571	7.61
698.893	7.61
699.216	7.6
699.538	7.56
699.86	7.56
700.182	7.53
700.504	7.52
700.827	7.55
701.149	7.57
701.471	7.51
701.793	7.35
702.114	7.2
702.436	7
702.758	6.79
703.08	6.62
703.401	6.37
703.723	6.18
704.045	6.01
704.366	5.94
704.688	5.89
705.009	5.8
705.331	5.81
705.652	5.81
705.973	5.85
706.294	5.86
706.616	5.85
706.937	5.93
707.258	5.98
707.579	6.01
707.9	6.02
708.221	6.07
708.542	6.07
708.863	6.15
709.183	6.2
709.504	6.24
709.825	6.23
710.145	6.37
710.466	6.42
710.787	6.41
711.107	6.29
711.427	6.23
711.748	6.23
712.068	6.18
712.388	6.23
712.709	6.24
713.029	6.27
713.349	6.24
713.669	6.3
713.989	6.35
714.309	6.36
714.629	6.42
714.949	6.43
715.269	6.5
715.589	6.45
715.908	6.55
716.228	6.57
716.548	6.57
716.867	6.5
717.187	6.48
717.506	6.49
717.826	6.6
718.145	6.68
718.465	6.74
718.784	6.87
719.103	6.8
719.422	6.76
719.741	6.8
720.061	6.89
720.38	6.86
720.699	6.94
721.018	7.07
721.336	7.18
721.655	7.33
721.974	7.39
722.293	7.52
722.612	7.49
722.93	7.55
723.249	7.66
723.567	7.79
723.886	7.99
724.204	8.19
724.523	8.33
724.841	8.47
725.159	8.7
725.477	8.81
725.796	9.09
726.114	9.42
726.432	9.54
726.75	9.76
727.068	9.98
727.386	10.03
727.704	10.21
728.022	10.2
728.339	10.21
728.657	10.33
728.975	10.49
729.292	10.63
729.61	10.77
729.928	10.89
730.245	10.99
730.562	11.07
730.88	11.13
731.197	11.35
731.514	11.44
731.832	11.5
732.149	11.56
732.466	11.61
732.783	11.63
733.1	11.83
733.417	11.89
733.734	11.97
734.051	12.13
734.368	12.12
734.684	12.29
735.001	12.43
735.318	12.56
735.634	12.7
735.951	12.9
736.268	13.12
736.584	13.31
736.9	13.6
737.217	13.67
737.533	13.87
737.849	13.97
738.166	14.13
738.482	14.24
738.798	14.45
739.114	14.62
739.43	14.79
739.746	14.91
740.062	15.07
740.378	15.25
740.693	15.31
741.009	15.54
741.325	15.66
741.641	15.85
741.956	16.06
742.272	16.2
742.587	16.33
742.903	16.43
743.218	16.61
743.533	16.61
743.849	16.69
744.164	16.7
744.479	16.82
744.794	16.93
745.109	16.98
745.424	16.97
745.739	17
746.054	17.05
746.369	17.05
746.684	17.06
746.999	16.98
747.313	17.18
747.628	17.31
747.943	17.41
748.257	17.48
748.572	17.47
748.886	17.61
749.201	17.56
749.515	17.59
749.829	17.6
750.144	17.75
750.458	17.94
750.772	18.03
751.086	17.98
751.4	18.07
751.714	18.25
752.028	18.41
752.342	18.57
752.656	18.76
752.97	18.85
753.284	19.07
753.597	19.32
753.911	19.44
754.225	19.34
754.538	19.57
754.852	19.75
755.165	19.89
755.478	19.79
755.792	19.9
756.105	19.89
756.418	19.94
756.731	20.1
757.045	20.24
757.358	20.38
757.671	20.5
757.984	20.58
758.297	20.59
758.609	20.77
758.922	20.84
759.235	20.69
759.548	20.62
759.86	20.48
760.173	20.24
760.486	20.03
760.798	19.94
761.111	19.73
761.423	19.53
761.735	19.44
762.048	19.5
762.36	19.61
762.672	19.73
762.984	19.87
763.296	19.8
763.608	19.78
763.92	19.86
764.232	20.04
764.544	20.05
764.856	20.24
765.168	20.21
765.48	20.31
765.791	20.52
766.103	20.79
766.414	21.11
766.726	21.45
767.037	21.78
767.349	22.14
767.66	22.48
767.972	22.88
768.283	23.49
768.594	23.91
768.905	24.03
769.216	24.24
769.527	24.43
769.838	24.77
770.149	25.22
770.46	25.6
770.771	25.72
771.082	25.97
771.393	26.1
771.703	26.33
772.014	26.37
772.324	26.5
772.635	26.85
772.945	27.03
773.256	27.18
773.566	27.3
773.877	27.7
774.187	27.99
774.497	28.15
774.807	27.91
775.117	27.95
775.427	28.49
775.737	28.76
776.047	28.98
776.357	28.93
776.667	28.82
776.977	28.66
777.287	28.78
777.596	28.86
777.906	28.92
778.216	29.1
778.525	29.21
778.835	29.47
779.144	29.43
779.453	29.47
779.763	29.73
780.072	30.1
780.381	29.94
780.69	29.95
781	30.31
781.309	30.51
781.618	30.76
781.927	30.64
782.235	30.69
782.544	30.76
782.853	31
783.162	31.17
783.471	31.44
783.779	31.54
784.088	31.8
784.396	31.77
784.705	31.97
785.013	31.89
785.322	31.68
785.63	31.47
785.938	31.19
786.246	30.99
786.554	30.77
786.863	30.87
787.171	30.84
787.479	30.83
787.787	31.05
788.094	30.88
788.402	30.84
788.71	30.99
789.018	30.83
789.326	30.61
789.633	30.88
789.941	30.85
790.248	30.83
790.556	30.6
790.863	30.83
791.171	30.81
791.478	31.16
791.785	31.29
792.092	31.74
792.399	32.11
792.707	32.34
793.014	32.42
793.321	32.46
793.628	32.6
793.934	32.32
794.241	32.12
794.548	32.14
794.855	32.28
795.161	32.08
795.468	32.06
795.775	32.43
796.081	32.2
796.388	32.35
796.694	32.38
797	32.48
797.307	32.53
797.613	32.72
797.919	32.55
798.225	32.69
798.531	32.63
798.837	32.91
799.143	32.9
799.449	33.16
799.755	33.29
800.061	33.5
800.367	33.89
800.672	34.18
800.978	34.53
801.284	34.85
801.589	35.36
801.895	35.77
802.2	36.16
802.506	36.21
802.811	36.08
803.116	36.32
803.421	36.54
803.727	36.29
804.032	35.97
804.337	36.28
804.642	36.11
804.947	35.84
805.252	35.32
805.556	35.45
805.861	35.32
806.166	35.46
806.471	35.51
806.775	35.53
807.08	35.66
807.384	35.57
807.689	35.41
807.993	35.09
808.298	35.13
808.602	34.87
808.906	35.08
809.211	35.53
809.515	35.48
809.819	35.43
810.123	35.7
810.427	36.02
810.731	36.21
811.035	36.24
811.338	36.58
811.642	37.06
811.946	37.41
812.25	37.6
812.553	37.75
812.857	37.9
813.16	38.03
813.464	37.9
813.767	38.01
814.07	37.86
814.374	37.95
814.677	37.99
814.98	38.05
815.283	38.02
815.586	37.96
815.889	38.08
816.192	38.3
816.495	38.14
816.798	37.98
817.101	37.58
817.404	37.41
817.706	36.89
818.009	36.29
818.312	35.31
818.614	34.03
818.917	31.93
819.219	29.8
819.521	27.69
819.824	25.94
820.126	24.5
820.428	23.48
820.73	22.71
821.032	22.14
821.334	21.74
821.636	21.37
821.938	21.18
822.24	21.07
822.542	20.96
822.844	20.88
823.145	20.81
823.447	20.63
823.749	20.54
824.05	20.43
824.352	20.24
824.653	20.12
824.955	20.13
825.256	20.15
825.557	20.29
825.858	20.44
826.16	20.76
826.461	21.27
826.762	21.81
827.063	22.27
827.364	22.8
827.665	23.16
827.965	23.79
828.266	24.16
828.567	24.45
828.868	24.7
829.168	24.97
829.469	25.18
829.769	25.63
830.07	25.85
830.37	26.11
830.67	26.73
830.971	27.33
831.271	27.82
831.571	28.34
831.871	28.67
832.171	29.06
832.471	29.23
832.771	29.13
833.071	29.37
833.371	29.94
833.671	29.88
833.971	30.34
834.27	30.38
834.57	30.48
834.869	30.46
835.169	30.8
835.468	30.94
835.768	31.24
836.067	31.33
836.367	31.59
836.666	32.2
836.965	32.76
837.264	33.46
837.563	34.34
837.862	35.61
838.161	36.59
838.46	37.82
838.759	39.09
839.058	39.98
839.356	40.6
839.655	41.01
839.954	41.94
840.252	42.8
840.551	43.73
840.849	44.31
841.148	45.26
841.446	45.35
841.744	45.82
842.043	45.94
842.341	46.74
842.639	47.54
842.937	47.68
843.235	48.32
843.533	48.8
843.831	49.15
844.129	49.96
844.427	51.25
844.724	51.95
845.022	52.49
845.32	54.23
845.617	55.28
845.915	55.89
846.212	56.72
846.51	56.46
846.807	56.37
847.104	56.21
847.402	55.88
847.699	56.31
847.996	56.81
848.293	57.02
848.59	56.59
848.887	56.48
849.184	56.96
849.481	57.36
849.778	57.47
850.074	57.87
850.371	57.51
850.668	57.06
850.964	57.74
851.261	58.13
851.557	57.72
851.854	58.1
852.15	58.05
852.446	57.88
852.743	59
853.039	59.7
853.335	60.91
853.631	61.34
853.927	61.64
854.223	61.46
854.519	60.83
854.815	61.15
855.111	61.06
855.406	60.94
855.702	60.29
855.998	60.54
856.293	61.67
856.589	62.93
856.884	63.31
857.18	63.1
857.475	63.36
857.77	62.98
858.066	63.37
858.361	64.13
858.656	64.34
858.951	64.06
859.246	63.61
859.541	63.21
859.836	62.72
860.131	62.53
860.426	62.57
860.72	63.5
861.015	64.34
861.31	64.76
861.604	65.64
861.899	65.88
862.193	64.92
862.487	62.78
862.782	62.19
863.076	62.32
863.37	62.51
863.664	62.76
863.959	63.92
864.253	63.54
864.547	62.92
864.841	62.34
865.135	61.73
865.428	62.01
865.722	62.14
866.016	63.41
866.31	63.07
866.603	63.19
866.897	63.12
867.19	62.14
867.484	62.77
867.777	61.86
868.07	61.57
868.364	62.55
868.657	64.66
868.95	64.3
869.243	64.46
869.536	64.31
869.829	63.02
870.122	61.51
870.415	60.16
870.708	60.23
871	61.1
871.293	60.88
871.586	59.64
871.878	58.83
872.171	58.57
872.463	59.06
872.756	59.59
873.048	59.57
873.341	59.82
873.633	58.86
873.925	59.15
874.217	59.42
874.509	58.71
874.801	57.2
875.093	57.37
875.385	56.8
875.677	56.08
875.969	56.42
